===== Content Duration [s] (YouTube (WiFi)) =====
0.00025;	9.055
0.00466;	27.376
0.00908;	40.007
0.01399;	50.294
0.01964;	54.938
0.02504;	59.605
0.02872;	66.06
0.03240;	74.93
0.03854;	86.819
0.04246;	93.367
0.04688;	102.887
0.05081;	108.622
0.05523;	116.633
0.05989;	122.044
0.06357;	128.731
0.06873;	132.771
0.07339;	144.613
0.07781;	152.183
0.08517;	157.733
0.08935;	164.978
0.09303;	169.181
0.09990;	173.127
0.10358;	177.934
0.10776;	180.953
0.11537;	183.693
0.11978;	187.571
0.12494;	189.219
0.13009;	190.937
0.13353;	196.069
0.13795;	199.738
0.14286;	203.128
0.14924;	205.821
0.15366;	211.185
0.15734;	216.386
0.16102;	220.287
0.16716;	226.371
0.17158;	230.272
0.17894;	237.493
0.18508;	242.091
0.18999;	248.43
0.19416;	254.537
0.19833;	259.9
0.20447;	271.952
0.20839;	277.455
0.21404;	283.863
0.22067;	290.528
0.22533;	300.094
0.22975;	306.735
0.23319;	310.682
0.23662;	318.345
0.24055;	325.845
0.24497;	334.088
0.25086;	342.401
0.25430;	351.735
0.25896;	358.376
0.26387;	366.619
0.26804;	374.143
0.27246;	380.249
0.27688;	387.657
0.28203;	395.853
0.28719;	400.219
0.29136;	408.926
0.29553;	417.285
0.30044;	423.044
0.30461;	428.733
0.30952;	433.098
0.31345;	435.792
0.31713;	442.247
0.32155;	446.217
0.32646;	453.021
0.33088;	459.012
0.33554;	466.581
0.33898;	477.146
0.34266;	481.558
0.34683;	490.498
0.35101;	496.535
0.35518;	501.458
0.35911;	507.286
0.36328;	511.976
0.36770;	514.739
0.37383;	520.475
0.37801;	524.143
0.38243;	529.577
0.38758;	534.012
0.39249;	539.26
0.39715;	544.322
0.40083;	550.08
0.40574;	561.017
0.41041;	570.165
0.41581;	578.897
0.41949;	588.045
0.42317;	595.011
0.42784;	600.607
0.43299;	601.768
0.43814;	603.254
0.44354;	604.647
0.44870;	606.644
0.45336;	610.173
0.45852;	613.842
0.46490;	617.627
0.47054;	621.133
0.47496;	625.8
0.47987;	630.003
0.48429;	632.86
0.48846;	635.297
0.49362;	638.618
0.49926;	642.008
0.50614;	646.211
0.51055;	649.02
0.51546;	651.853
0.52086;	657.844
0.52430;	660.422
0.52946;	663.347
0.53387;	666.133
0.53731;	671.033
0.54197;	675.004
0.54688;	680.809
0.55056;	684.872
0.55719;	688.471
0.56161;	691.931
0.56505;	694.973
0.56922;	697.643
0.57339;	701.126
0.57732;	705.933
0.58223;	708.742
0.58640;	712.968
0.59008;	718.843
0.59401;	723.44
0.59818;	729.129
0.60334;	734.702
0.60825;	740.345
0.61267;	744.965
0.61733;	749.075
0.62175;	755.321
0.62739;	759.176
0.63132;	763.843
0.63893;	768.069
0.64310;	775.128
0.64654;	779.493
0.65071;	785.972
0.65513;	790.941
0.65930;	798.255
0.66274;	802.365
0.66716;	809.006
0.67084;	813.487
0.67526;	819.455
0.68041;	824.378
0.68581;	829.811
0.69097;	832.412
0.69563;	840.074
0.70005;	844.184
0.70349;	847.11
0.70766;	853.542
0.71085;	864.734
0.71453;	871.444
0.72018;	879.85
0.72410;	884.935
0.72852;	893.016
0.73417;	900.051
0.74055;	906.483
0.74620;	914.889
0.75135;	919.881
0.75675;	922.853
0.76215;	927.242
0.76657;	933.163
0.77099;	938.411
0.77467;	943.705
0.77884;	949.045
0.78375;	954.734
0.78817;	962.281
0.79161;	970.779
0.79651;	978.883
0.80142;	983.782
0.80658;	993.326
0.81075;	1002.173
0.81443;	1010.393
0.81861;	1016.105
0.82302;	1022.699
0.82769;	1031.198
0.83235;	1045.037
0.83751;	1058.435
0.84094;	1071.554
0.84512;	1088.459
0.84929;	1099.302
0.85641;	1112.885
0.86082;	1129.975
0.86598;	1145.927
0.87040;	1157.654
0.87506;	1181.245
0.88243;	1196.779
0.88635;	1214.101
0.89028;	1237.112
0.89445;	1250.139
0.89887;	1272.894
0.90550;	1302.012
0.90967;	1331.014
0.91605;	1356.37
0.92219;	1400.163
0.92563;	1443.213
0.93029;	1473.654
0.93569;	1517.098
0.94035;	1552.811
0.94477;	1607.888
0.94845;	1700.141
0.95336;	1733.532
0.95704;	1797.804
0.96244;	1891.613
0.96760;	2014.005
0.97177;	2308.458
0.97545;	2617.608
0.97987;	2673.057
0.98380;	2916.101
0.98846;	2928.361
0.99190;	2966.418
0.99632;	3074.6

=========================

===== Content Duration [s] (YouTube (Cellular)) =====
0.00068;	13.56
0.00546;	20.619
0.00888;	30.0
0.01366;	37.035
0.01844;	46.3
0.02459;	50.062
0.02801;	55.983
0.03210;	63.181
0.03757;	65.898
0.04235;	71.099
0.04713;	76.811
0.05123;	83.011
0.05601;	86.262
0.05943;	89.164
0.06489;	100.728
0.06967;	111.2
0.07309;	118.444
0.07719;	122.369
0.08128;	127.732
0.08607;	130.635
0.08948;	136.881
0.09426;	144.056
0.09904;	148.723
0.10383;	154.343
0.10724;	158.221
0.11134;	162.121
0.11749;	164.978
0.12432;	166.208
0.12910;	169.343
0.13456;	172.779
0.13866;	176.03
0.14481;	178.329
0.15027;	178.932
0.15505;	179.281
0.16257;	180.093
0.16735;	181.905
0.17077;	183.902
0.17555;	187.037
0.18101;	188.407
0.18784;	189.405
0.19194;	191.727
0.19672;	195.163
0.20287;	198.135
0.20628;	201.131
0.21038;	204.776
0.21380;	209.049
0.21790;	213.09
0.22473;	215.249
0.22883;	217.13
0.23361;	218.686
0.23770;	222.795
0.24180;	229.366
0.24658;	231.573
0.25137;	234.661
0.25615;	236.82
0.26161;	239.56
0.26503;	243.229
0.26844;	247.896
0.27186;	254.49
0.27664;	260.69
0.28005;	269.188
0.28415;	273.577
0.28757;	276.016
0.29098;	280.102
0.29508;	288.322
0.29986;	290.644
0.30464;	297.215
0.30874;	300.234
0.31284;	301.603
0.31762;	306.619
0.32240;	308.128
0.32719;	309.916
0.33197;	310.985
0.33743;	314.932
0.34153;	321.039
0.34768;	329.142
0.35178;	334.738
0.35519;	336.898
0.35861;	342.401
0.36202;	347.742
0.36612;	358.492
0.37090;	360.675
0.37432;	365.365
0.38046;	366.689
0.38388;	371.403
0.38730;	374.978
0.39071;	378.508
0.39481;	386.124
0.39891;	393.067
0.40232;	399.011
0.40642;	402.123
0.41052;	409.46
0.41393;	416.403
0.41735;	421.093
0.42213;	424.901
0.42691;	429.522
0.43033;	434.329
0.43443;	443.454
0.43921;	448.423
0.44331;	451.697
0.44740;	455.738
0.45287;	459.174
0.45697;	465.397
0.46038;	468.16
0.46380;	473.129
0.46926;	479.12
0.47268;	482.928
0.47883;	486.249
0.48224;	492.657
0.48634;	500.575
0.48975;	503.501
0.49317;	513.903
0.49795;	518.246
0.50342;	524.492
0.50751;	532.247
0.51230;	536.984
0.51776;	542.441
0.52186;	551.613
0.52664;	554.12
0.53142;	559.6
0.53484;	568.169
0.53893;	575.761
0.54372;	578.362
0.54781;	582.89
0.55123;	588.254
0.55464;	594.245
0.55806;	600.258
0.56284;	601.954
0.56899;	603.44
0.57309;	606.876
0.57719;	609.245
0.58060;	614.376
0.58607;	617.766
0.59085;	620.762
0.59631;	623.525
0.60041;	627.496
0.60451;	636.737
0.60861;	639.338
0.61202;	642.937
0.61612;	646.722
0.62090;	652.062
0.62568;	655.847
0.62978;	657.705
0.63456;	663.324
0.63866;	666.087
0.64276;	670.963
0.64686;	675.607
0.65164;	677.929
0.65710;	680.855
0.66120;	684.338
0.66462;	687.612
0.66872;	693.696
0.67213;	699.686
0.67623;	703.541
0.68238;	708.208
0.68648;	714.501
0.69331;	719.725
0.69740;	724.323
0.70287;	729.176
0.70902;	738.139
0.71311;	742.411
0.71858;	744.338
0.72404;	745.848
0.72746;	751.769
0.73156;	754.021
0.73566;	759.292
0.74044;	769.323
0.74454;	775.848
0.74863;	781.653
0.75342;	787.806
0.75888;	794.842
0.76298;	801.413
0.76913;	808.936
0.77459;	814.486
0.77801;	819.13
0.78210;	826.746
0.78552;	829.022
0.79167;	832.412
0.79645;	834.943
0.80055;	843.325
0.80396;	850.57
0.80806;	860.206
0.81216;	868.217
0.81626;	880.129
0.82036;	884.54
0.82445;	888.372
0.82855;	894.525
0.83197;	905.253
0.83743;	915.818
0.84153;	932.722
0.84495;	941.453
0.84904;	954.456
0.85246;	957.126
0.85656;	968.248
0.86134;	976.282
0.86612;	1005.006
0.87090;	1011.182
0.87432;	1030.408
0.87910;	1044.085
0.88320;	1053.21
0.88798;	1080.169
0.89208;	1103.18
0.89549;	1130.951
0.89891;	1146.531
0.90437;	1154.937
0.90847;	1176.021
0.91189;	1204.767
0.91530;	1229.101
0.91872;	1267.205
0.92213;	1312.136
0.92623;	1327.02
0.93238;	1344.481
0.93579;	1364.613
0.93921;	1421.502
0.94262;	1494.32
0.94672;	1559.544
0.95150;	1610.443
0.95560;	1674.994
0.96107;	1738.013
0.96516;	1783.501
0.96858;	1831.172
0.97199;	2130.663
0.97541;	2467.213
0.97951;	2670.341
0.98292;	2913.57
0.98634;	2919.56
0.98975;	2953.09
0.99454;	3156.845
0.99863;	8114.817

=========================

===== Content Duration [s] (DTube (WiFi)) =====
0.00055;	4.004
0.00385;	15.07
0.00879;	20.88
0.01209;	29.487
0.01703;	36.581
0.02253;	44.566
0.02692;	55.147
0.03022;	59.026
0.03571;	60.044
0.04121;	65.003
0.04560;	70.672
0.04945;	73.574
0.05330;	75.558
0.05769;	80.688
0.06374;	87.587
0.06703;	90.537
0.07198;	94.32
0.07527;	98.326
0.07857;	101.202
0.08297;	108.246
0.08791;	112.71
0.09286;	115.404
0.09670;	120.125
0.10055;	122.99
0.10385;	127.2
0.10769;	130.311
0.11099;	132.16
0.11593;	133.834
0.11923;	134.72
0.12308;	136.834
0.12802;	140.207
0.13242;	144.382
0.13736;	145.717
0.14286;	147.634
0.14670;	150.0
0.15165;	152.386
0.15659;	156.323
0.16044;	158.678
0.16429;	162.803
0.16923;	166.208
0.17527;	169.135
0.18077;	172.63
0.18571;	175.2
0.18901;	178.16
0.19341;	180.56
0.19780;	182.349
0.20220;	183.3
0.20604;	183.951
0.20934;	185.08
0.21264;	186.225
0.21593;	188.36
0.21923;	189.754
0.22363;	190.967
0.22857;	192.5
0.23297;	195.327
0.23681;	197.0
0.24066;	198.592
0.24451;	200.634
0.24835;	201.898
0.25275;	204.72
0.25934;	206.974
0.26374;	209.177
0.26703;	210.8
0.27088;	213.172
0.27473;	214.381
0.28022;	216.034
0.28407;	217.131
0.28846;	219.03
0.29396;	221.855
0.29780;	223.98
0.30165;	226.56
0.30549;	228.496
0.31319;	229.597
0.31648;	231.254
0.32308;	233.451
0.32692;	235.335
0.33132;	237.142
0.33681;	239.239
0.34066;	241.977
0.34670;	244.135
0.35659;	245.412
0.36374;	246.647
0.36758;	247.72
0.37692;	248.576
0.38187;	252.687
0.38516;	254.221
0.39176;	256.047
0.39615;	257.451
0.40055;	259.785
0.40385;	262.219
0.40934;	263.488
0.41319;	264.824
0.41813;	265.92
0.42253;	269.434
0.42582;	272.08
0.42967;	273.274
0.43297;	277.504
0.43626;	279.754
0.43956;	281.387
0.44725;	284.076
0.45165;	286.153
0.45549;	288.24
0.46044;	291.4
0.46374;	294.843
0.46978;	297.355
0.47363;	299.776
0.47857;	302.836
0.48242;	306.28
0.48626;	309.8
0.49011;	311.728
0.49396;	313.643
0.49780;	315.978
0.50275;	318.903
0.50714;	320.863
0.51154;	321.835
0.51538;	326.72
0.51868;	329.834
0.52418;	331.86
0.52967;	334.6
0.53462;	337.367
0.53846;	340.56
0.54176;	343.934
0.54505;	346.18
0.54835;	348.167
0.55440;	352.061
0.55769;	357.169
0.56319;	359.2
0.57033;	363.197
0.57912;	365.88
0.58297;	371.497
0.58791;	374.375
0.59176;	377.65
0.59615;	380.492
0.59945;	384.301
0.60330;	386.467
0.60659;	388.756
0.61044;	393.649
0.61374;	397.24
0.61813;	401.091
0.62143;	403.65
0.62637;	408.334
0.63242;	412.48
0.63626;	414.48
0.64011;	421.675
0.64615;	425.019
0.65165;	432.879
0.65495;	437.243
0.65824;	441.905
0.66209;	444.597
0.66813;	451.867
0.67143;	460.534
0.67582;	464.631
0.67912;	468.883
0.68407;	474.183
0.68736;	479.819
0.69066;	484.95
0.69505;	492.501
0.69890;	494.4
0.70220;	497.234
0.70604;	500.375
0.71099;	506.347
0.71648;	514.048
0.71978;	521.384
0.72363;	527.873
0.72802;	537.634
0.73187;	545.7
0.73516;	556.167
0.73901;	564.765
0.74231;	568.467
0.74615;	577.847
0.74945;	587.744
0.75385;	596.934
0.75714;	605.782
0.76154;	611.545
0.76484;	622.614
0.77033;	640.598
0.77363;	654.08
0.77802;	659.634
0.78681;	673.067
0.79011;	680.546
0.79615;	687.5
0.80000;	693.534
0.80495;	700.4
0.80934;	712.9
0.81319;	721.723
0.81758;	736.2
0.82198;	743.574
0.82582;	758.75
0.82967;	763.627
0.83297;	770.437
0.83626;	775.8
0.83956;	782.134
0.84286;	795.005
0.84670;	820.634
0.85055;	843.953
0.85440;	855.4
0.85824;	864.448
0.86154;	874.046
0.86538;	880.9
0.86923;	886.933
0.87363;	904.371
0.88132;	922.181
0.88846;	951.2
0.89560;	960.067
0.90165;	979.2
0.90549;	1007.839
0.90934;	1031.723
0.91429;	1045.267
0.91868;	1065.633
0.92198;	1086.653
0.92692;	1132.932
0.93077;	1160.742
0.93462;	1176.3
0.93956;	1192.992
0.94505;	1233.3
0.94890;	1296.434
0.95385;	1318.895
0.95769;	1388.5
0.96264;	1450.342
0.96703;	1544.103
0.97033;	1599.702
0.97363;	1773.272
0.97747;	1955.375
0.98077;	2264.7
0.98571;	2457.688
0.98901;	3119.249
0.99231;	4135.533
0.99560;	7138.929
1.00000;	11114.324

=========================

===== Content Duration [s] (DTube (Cellular)) =====
0.00126;	5.248
0.00504;	9.8
0.01008;	13.355
0.01637;	26.7
0.02015;	33.307
0.02393;	38.6
0.03023;	46.48
0.03526;	49.111
0.03904;	59.567
0.04282;	64.704
0.04660;	73.974
0.05038;	77.509
0.05416;	79.034
0.05793;	81.48
0.06171;	90.415
0.06549;	93.334
0.06927;	105.64
0.07557;	111.36
0.07935;	113.182
0.08564;	119.578
0.09068;	120.32
0.09446;	121.278
0.09824;	123.275
0.10202;	126.734
0.10579;	129.451
0.10957;	133.401
0.11335;	135.884
0.11713;	141.5
0.12091;	143.407
0.12720;	146.795
0.13098;	149.119
0.13476;	151.325
0.13980;	153.387
0.14358;	159.3
0.14736;	160.36
0.15113;	162.411
0.15491;	166.23
0.15869;	167.367
0.16373;	167.881
0.16751;	168.469
0.17128;	170.877
0.17506;	172.715
0.18010;	175.531
0.18388;	178.19
0.18766;	178.731
0.19144;	182.24
0.19521;	183.28
0.19899;	184.483
0.20277;	185.76
0.20781;	189.24
0.21159;	191.472
0.21537;	194.518
0.21914;	196.717
0.22418;	199.1
0.22922;	202.304
0.23426;	203.798
0.23929;	207.72
0.24937;	208.918
0.25567;	210.561
0.26071;	212.587
0.26448;	216.759
0.26826;	218.838
0.27204;	220.134
0.27582;	221.834
0.27960;	222.308
0.28338;	223.586
0.28715;	225.234
0.29093;	226.496
0.29471;	230.342
0.29849;	231.12
0.30227;	231.699
0.30605;	234.101
0.30982;	235.467
0.31360;	239.705
0.31738;	241.36
0.32116;	244.438
0.32494;	248.0
0.32997;	248.576
0.33375;	249.94
0.33753;	253.675
0.34257;	254.538
0.34761;	259.134
0.35264;	261.056
0.35642;	262.061
0.36146;	264.64
0.36524;	268.819
0.36902;	270.038
0.37280;	270.87
0.37657;	271.36
0.38035;	274.341
0.38413;	277.291
0.38791;	282.249
0.39169;	284.9
0.39673;	291.2
0.40050;	292.867
0.40428;	295.702
0.40932;	296.56
0.41310;	299.567
0.41688;	299.968
0.42191;	301.034
0.42569;	306.62
0.42947;	308.134
0.43325;	309.221
0.44081;	311.72
0.44458;	312.919
0.45088;	316.067
0.45466;	318.75
0.45970;	322.2
0.46348;	322.7
0.46725;	330.898
0.47103;	331.64
0.47481;	334.6
0.47859;	337.934
0.48237;	342.134
0.48615;	345.846
0.49118;	347.934
0.49622;	355.094
0.50000;	357.8
0.50504;	362.296
0.50882;	364.182
0.51385;	367.167
0.51763;	369.267
0.52141;	380.118
0.52645;	382.294
0.53023;	386.07
0.53401;	393.963
0.53778;	396.352
0.54282;	401.125
0.54786;	409.515
0.55164;	413.68
0.55542;	416.311
0.55919;	421.967
0.56297;	423.334
0.56801;	428.6
0.57179;	434.067
0.57557;	442.595
0.57935;	445.035
0.58312;	451.867
0.58690;	456.449
0.59068;	458.774
0.59446;	460.383
0.59824;	473.734
0.60327;	475.777
0.60705;	481.43
0.61083;	484.6
0.61461;	488.99
0.61839;	493.067
0.62217;	496.13
0.62594;	500.395
0.62972;	503.404
0.63350;	510.594
0.63854;	514.98
0.64358;	517.388
0.64861;	524.6
0.65743;	529.392
0.66121;	535.766
0.66499;	539.8
0.67254;	550.268
0.67632;	557.72
0.68136;	562.667
0.68514;	564.88
0.68892;	568.425
0.69270;	583.534
0.70025;	598.294
0.70529;	604.1
0.70907;	610.283
0.71285;	614.842
0.71662;	619.2
0.72040;	623.936
0.72418;	634.902
0.72796;	651.834
0.73300;	654.196
0.73678;	662.24
0.74055;	676.544
0.74559;	681.947
0.74937;	687.937
0.75315;	696.042
0.75693;	701.888
0.76196;	711.46
0.76574;	734.912
0.76952;	739.185
0.77456;	752.68
0.77960;	759.224
0.78338;	765.761
0.78841;	772.96
0.79345;	787.183
0.79723;	791.851
0.80101;	796.52
0.80479;	817.35
0.80856;	823.691
0.81486;	833.202
0.81864;	840.022
0.82242;	853.987
0.82746;	863.275
0.83375;	887.024
0.83753;	912.179
0.84383;	927.76
0.84761;	960.66
0.85139;	971.848
0.85516;	983.435
0.85894;	1019.375
0.86524;	1050.155
0.87154;	1071.807
0.87657;	1096.563
0.88161;	1132.434
0.88539;	1145.003
0.88917;	1188.235
0.89295;	1196.08
0.89673;	1232.307
0.90050;	1262.91
0.90554;	1268.289
0.91058;	1288.554
0.91688;	1300.099
0.92317;	1414.967
0.92821;	1455.067
0.93199;	1544.035
0.93577;	1599.702
0.93955;	1673.6
0.94458;	1714.313
0.94836;	1795.435
0.95214;	1879.45
0.95592;	2093.474
0.95970;	2243.367
0.96474;	2457.688
0.96851;	2527.047
0.97229;	2617.024
0.97607;	2798.353
0.98111;	2951.339
0.98489;	3256.667
0.98866;	3793.167
0.99244;	5265.821
0.99622;	7215.033

=========================

