===== Startup Delay [s] (YouTube (WiFi)) =====
0.00025;	0.158
0.00196;	0.202
0.00417;	0.211
0.00736;	0.218
0.01129;	0.227
0.01448;	0.233
0.01939;	0.239
0.02283;	0.246
0.02626;	0.254
0.03068;	0.26
0.03559;	0.266
0.04369;	0.272
0.04885;	0.278
0.05523;	0.284
0.06063;	0.29
0.07192;	0.296
0.08174;	0.302
0.09107;	0.308
0.10015;	0.314
0.10653;	0.32
0.11438;	0.326
0.12347;	0.332
0.13378;	0.338
0.14335;	0.344
0.15218;	0.35
0.16348;	0.356
0.17378;	0.362
0.18508;	0.368
0.19686;	0.374
0.20741;	0.38
0.21699;	0.386
0.22730;	0.392
0.23957;	0.398
0.25086;	0.404
0.25822;	0.41
0.26976;	0.416
0.28130;	0.422
0.29553;	0.428
0.30731;	0.434
0.31664;	0.44
0.32867;	0.446
0.34094;	0.452
0.35150;	0.458
0.36156;	0.464
0.37359;	0.47
0.38095;	0.476
0.39273;	0.482
0.40403;	0.488
0.41384;	0.494
0.42293;	0.5
0.43054;	0.506
0.43962;	0.512
0.44944;	0.518
0.45876;	0.524
0.46465;	0.53
0.47202;	0.536
0.48135;	0.542
0.49018;	0.548
0.49681;	0.554
0.50393;	0.56
0.51154;	0.566
0.51865;	0.572
0.52479;	0.578
0.53216;	0.584
0.54050;	0.59
0.55032;	0.596
0.55719;	0.602
0.56333;	0.608
0.57069;	0.614
0.57806;	0.62
0.58468;	0.626
0.59033;	0.632
0.59647;	0.638
0.60579;	0.645
0.61070;	0.651
0.61561;	0.657
0.62322;	0.663
0.63108;	0.669
0.63746;	0.675
0.64335;	0.681
0.64826;	0.687
0.65415;	0.694
0.65734;	0.701
0.66225;	0.707
0.66568;	0.714
0.67256;	0.72
0.67771;	0.726
0.68213;	0.732
0.68925;	0.739
0.69514;	0.745
0.69956;	0.751
0.70496;	0.757
0.70938;	0.763
0.71281;	0.769
0.71551;	0.776
0.71919;	0.782
0.72386;	0.788
0.72950;	0.794
0.73270;	0.8
0.73859;	0.806
0.74251;	0.812
0.74718;	0.818
0.75184;	0.826
0.75479;	0.833
0.75871;	0.839
0.76264;	0.845
0.76657;	0.851
0.76976;	0.858
0.77295;	0.864
0.77565;	0.872
0.77933;	0.878
0.78301;	0.885
0.78473;	0.891
0.78743;	0.898
0.79161;	0.906
0.79553;	0.912
0.79823;	0.919
0.80142;	0.926
0.80412;	0.933
0.80781;	0.943
0.81001;	0.952
0.81345;	0.959
0.81689;	0.966
0.81934;	0.974
0.82278;	0.981
0.82548;	0.99
0.82867;	0.996
0.83162;	1.002
0.83456;	1.008
0.83898;	1.017
0.84192;	1.025
0.84462;	1.034
0.84806;	1.041
0.85101;	1.049
0.85493;	1.059
0.85763;	1.065
0.85935;	1.077
0.86156;	1.083
0.86426;	1.094
0.86672;	1.1
0.86892;	1.108
0.87187;	1.116
0.87432;	1.122
0.87629;	1.133
0.87948;	1.14
0.88193;	1.148
0.88414;	1.158
0.88660;	1.164
0.88930;	1.174
0.89224;	1.183
0.89445;	1.193
0.89666;	1.204
0.89887;	1.218
0.90083;	1.23
0.90255;	1.244
0.90476;	1.254
0.90648;	1.27
0.90820;	1.282
0.91016;	1.291
0.91360;	1.304
0.91581;	1.313
0.91728;	1.323
0.91949;	1.336
0.92145;	1.344
0.92366;	1.365
0.92563;	1.385
0.92734;	1.405
0.92906;	1.422
0.93152;	1.438
0.93299;	1.453
0.93520;	1.475
0.93667;	1.489
0.93888;	1.507
0.94060;	1.521
0.94281;	1.546
0.94453;	1.568
0.94624;	1.575
0.94796;	1.602
0.94968;	1.623
0.95164;	1.645
0.95312;	1.672
0.95459;	1.69
0.95631;	1.714
0.95778;	1.736
0.95925;	1.777
0.96073;	1.829
0.96220;	1.874
0.96392;	1.904
0.96539;	1.947
0.96686;	2.009
0.96834;	2.043
0.96981;	2.18
0.97128;	2.239
0.97275;	2.297
0.97447;	2.371
0.97595;	2.447
0.97742;	2.654
0.97889;	2.741
0.98036;	2.922
0.98184;	3.025
0.98331;	3.219
0.98478;	3.531
0.98625;	4.013
0.98773;	4.608
0.98920;	5.184
0.99067;	5.985
0.99215;	6.288
0.99362;	6.872
0.99509;	8.62
0.99656;	18.641
0.99804;	31.663
0.99951;	111.314

=========================

===== Startup Delay [s] (YouTube (Cellular)) =====
0.00068;	0.341
0.00342;	0.356
0.00615;	0.369
0.00956;	0.379
0.01230;	0.385
0.01503;	0.395
0.01844;	0.404
0.02254;	0.409
0.02596;	0.415
0.03142;	0.421
0.03620;	0.425
0.04030;	0.429
0.04713;	0.435
0.05260;	0.441
0.05806;	0.445
0.06148;	0.449
0.06694;	0.453
0.07445;	0.457
0.07992;	0.461
0.08265;	0.465
0.08675;	0.47
0.09290;	0.476
0.09699;	0.48
0.10178;	0.484
0.10861;	0.488
0.11202;	0.493
0.11749;	0.497
0.12227;	0.503
0.12568;	0.507
0.13251;	0.512
0.14003;	0.516
0.14617;	0.52
0.15232;	0.524
0.15710;	0.529
0.16393;	0.536
0.16872;	0.542
0.17486;	0.546
0.18443;	0.55
0.19126;	0.555
0.19604;	0.56
0.20560;	0.565
0.21107;	0.57
0.21926;	0.574
0.22609;	0.578
0.23156;	0.582
0.24044;	0.586
0.25000;	0.591
0.25478;	0.595
0.26161;	0.601
0.27117;	0.606
0.27596;	0.61
0.28142;	0.614
0.28962;	0.618
0.30191;	0.623
0.31079;	0.628
0.31762;	0.633
0.32172;	0.637
0.33197;	0.642
0.33811;	0.646
0.34290;	0.65
0.34904;	0.654
0.35383;	0.658
0.35997;	0.662
0.36817;	0.666
0.37500;	0.671
0.37842;	0.676
0.38730;	0.682
0.39413;	0.687
0.40027;	0.692
0.40574;	0.696
0.41393;	0.7
0.41803;	0.704
0.42486;	0.709
0.43033;	0.714
0.43648;	0.718
0.44604;	0.722
0.45355;	0.726
0.45765;	0.732
0.46107;	0.737
0.46448;	0.741
0.46790;	0.746
0.47678;	0.75
0.48292;	0.755
0.48770;	0.76
0.49590;	0.764
0.50273;	0.77
0.50683;	0.776
0.51025;	0.78
0.51844;	0.784
0.52391;	0.789
0.52732;	0.794
0.53347;	0.801
0.53825;	0.807
0.54508;	0.811
0.54986;	0.818
0.55464;	0.825
0.55874;	0.832
0.56216;	0.837
0.56626;	0.843
0.57104;	0.848
0.57445;	0.854
0.57787;	0.86
0.58675;	0.865
0.59153;	0.873
0.59631;	0.88
0.60041;	0.888
0.60451;	0.895
0.60929;	0.903
0.61202;	0.909
0.61749;	0.915
0.62090;	0.922
0.62363;	0.928
0.62705;	0.936
0.63046;	0.942
0.63388;	0.953
0.63661;	0.959
0.64276;	0.967
0.64686;	0.972
0.64959;	0.981
0.65301;	0.986
0.65847;	0.996
0.66189;	1.007
0.66598;	1.016
0.66940;	1.023
0.67281;	1.035
0.67555;	1.039
0.68033;	1.049
0.68443;	1.056
0.68784;	1.062
0.69057;	1.08
0.69536;	1.093
0.69877;	1.108
0.70219;	1.117
0.70492;	1.13
0.70902;	1.136
0.71448;	1.144
0.71721;	1.153
0.71995;	1.168
0.72268;	1.175
0.72609;	1.19
0.72883;	1.213
0.73224;	1.223
0.73566;	1.235
0.73975;	1.241
0.74385;	1.261
0.74658;	1.272
0.74932;	1.277
0.75273;	1.288
0.75615;	1.3
0.75888;	1.31
0.76161;	1.324
0.76434;	1.347
0.76844;	1.358
0.77117;	1.381
0.77391;	1.398
0.77732;	1.421
0.78005;	1.441
0.78279;	1.454
0.78552;	1.485
0.78825;	1.492
0.79098;	1.504
0.79372;	1.51
0.79645;	1.533
0.79918;	1.548
0.80191;	1.617
0.80464;	1.667
0.80738;	1.682
0.81011;	1.7
0.81284;	1.746
0.81557;	1.804
0.81831;	1.822
0.82104;	1.875
0.82377;	1.907
0.82650;	1.941
0.82923;	1.987
0.83197;	2.031
0.83538;	2.055
0.83811;	2.162
0.84085;	2.18
0.84358;	2.243
0.84631;	2.26
0.84904;	2.294
0.85178;	2.327
0.85451;	2.373
0.85724;	2.449
0.85997;	2.534
0.86270;	2.599
0.86544;	2.665
0.86817;	2.693
0.87090;	2.735
0.87363;	2.766
0.87637;	2.805
0.87978;	2.877
0.88251;	2.965
0.88525;	3.072
0.88866;	3.195
0.89139;	3.305
0.89413;	3.376
0.89754;	3.528
0.90027;	3.627
0.90301;	3.76
0.90574;	3.82
0.90847;	4.031
0.91120;	4.172
0.91393;	4.301
0.91667;	4.436
0.91940;	4.582
0.92213;	4.687
0.92486;	4.772
0.92760;	4.925
0.93033;	5.161
0.93306;	5.255
0.93579;	5.503
0.93852;	5.73
0.94126;	5.839
0.94399;	6.067
0.94672;	6.449
0.94945;	6.698
0.95219;	6.96
0.95492;	7.352
0.95765;	7.654
0.96038;	7.951
0.96311;	8.215
0.96585;	8.535
0.96858;	9.182
0.97131;	9.719
0.97404;	10.069
0.97678;	11.141
0.97951;	11.751
0.98224;	13.662
0.98497;	15.323
0.98770;	18.865
0.99044;	20.164
0.99317;	29.815
0.99590;	49.5
0.99863;	316.625

=========================

===== Startup Delay [s] (DTube (WiFi)) =====
0.00055;	0.382
0.00440;	0.55
0.00879;	0.586
0.01264;	0.608
0.01703;	0.634
0.02143;	0.654
0.02637;	0.677
0.03077;	0.688
0.03571;	0.702
0.03956;	0.714
0.04451;	0.726
0.04945;	0.738
0.05495;	0.751
0.06099;	0.762
0.06648;	0.77
0.07363;	0.782
0.07967;	0.791
0.08516;	0.807
0.09121;	0.816
0.09725;	0.826
0.10440;	0.838
0.11374;	0.848
0.12143;	0.86
0.12912;	0.867
0.13462;	0.877
0.14286;	0.886
0.14835;	0.895
0.15495;	0.902
0.16154;	0.915
0.16703;	0.924
0.17473;	0.938
0.18187;	0.948
0.18791;	0.959
0.19451;	0.967
0.20165;	0.976
0.20714;	0.986
0.21484;	1.001
0.22033;	1.012
0.22692;	1.02
0.23297;	1.03
0.23791;	1.037
0.24286;	1.049
0.24780;	1.058
0.25495;	1.067
0.26044;	1.075
0.26758;	1.089
0.27418;	1.097
0.27912;	1.106
0.28681;	1.115
0.29451;	1.128
0.30055;	1.137
0.30659;	1.151
0.31319;	1.162
0.32088;	1.17
0.32582;	1.185
0.33187;	1.2
0.33736;	1.216
0.34286;	1.231
0.34725;	1.239
0.35220;	1.247
0.35879;	1.26
0.36319;	1.267
0.36868;	1.276
0.37473;	1.29
0.37967;	1.303
0.38407;	1.314
0.38901;	1.325
0.39451;	1.34
0.39945;	1.355
0.40495;	1.367
0.40934;	1.381
0.41648;	1.391
0.42198;	1.402
0.42747;	1.41
0.43352;	1.43
0.43846;	1.443
0.44341;	1.452
0.44835;	1.464
0.45604;	1.476
0.46154;	1.493
0.46593;	1.504
0.47143;	1.514
0.47802;	1.528
0.48242;	1.548
0.48626;	1.567
0.49011;	1.577
0.49505;	1.592
0.50000;	1.604
0.50549;	1.619
0.51099;	1.635
0.51593;	1.646
0.52088;	1.656
0.52582;	1.677
0.53077;	1.701
0.53462;	1.725
0.53846;	1.74
0.54451;	1.758
0.54945;	1.778
0.55385;	1.797
0.55769;	1.813
0.56154;	1.829
0.56703;	1.848
0.57363;	1.877
0.58022;	1.898
0.58516;	1.918
0.58901;	1.93
0.59286;	1.958
0.59670;	1.982
0.60110;	2.002
0.60604;	2.021
0.60989;	2.042
0.61374;	2.066
0.61923;	2.088
0.62363;	2.112
0.62747;	2.129
0.63187;	2.153
0.63571;	2.191
0.64011;	2.213
0.64505;	2.264
0.65000;	2.284
0.65440;	2.319
0.66044;	2.348
0.66484;	2.37
0.66868;	2.409
0.67253;	2.428
0.67802;	2.458
0.68187;	2.49
0.68681;	2.509
0.69231;	2.554
0.69615;	2.605
0.70000;	2.643
0.70495;	2.667
0.70879;	2.706
0.71264;	2.765
0.71703;	2.813
0.72088;	2.884
0.72637;	2.916
0.73022;	2.952
0.73462;	3.011
0.73901;	3.069
0.74286;	3.138
0.74670;	3.193
0.75110;	3.243
0.75495;	3.312
0.75879;	3.376
0.76319;	3.449
0.76703;	3.506
0.77088;	3.606
0.77473;	3.658
0.77857;	3.713
0.78242;	3.758
0.78626;	3.827
0.79011;	3.859
0.79451;	3.944
0.79890;	4.065
0.80275;	4.147
0.80659;	4.247
0.81044;	4.348
0.81429;	4.392
0.81813;	4.495
0.82198;	4.574
0.82637;	4.716
0.83022;	4.855
0.83462;	4.9
0.83846;	4.961
0.84231;	5.193
0.84670;	5.275
0.85055;	5.404
0.85440;	5.493
0.85824;	5.652
0.86209;	5.783
0.86593;	5.915
0.86978;	6.23
0.87363;	6.479
0.87747;	6.63
0.88132;	7.049
0.88516;	7.126
0.88901;	7.446
0.89286;	7.711
0.89670;	8.064
0.90055;	8.275
0.90440;	8.632
0.90879;	8.908
0.91264;	9.455
0.91648;	9.749
0.92033;	9.92
0.92418;	10.204
0.92802;	10.497
0.93187;	10.65
0.93571;	11.6
0.93956;	12.271
0.94341;	12.751
0.94725;	13.916
0.95110;	15.709
0.95495;	17.396
0.95879;	18.797
0.96264;	23.224
0.96648;	28.915
0.97033;	36.149
0.97418;	61.04
0.97802;	110.882
0.98187;	153.198
0.98571;	281.153
0.98956;	370.159
0.99341;	591.959
0.99725;	1198.579

=========================

===== Startup Delay [s] (DTube (Cellular)) =====
0.00126;	0.732
0.00504;	0.841
0.00882;	0.88
0.01259;	0.917
0.01763;	0.933
0.02141;	0.943
0.02519;	0.958
0.02897;	0.97
0.03275;	0.994
0.03652;	1.022
0.04030;	1.039
0.04534;	1.062
0.05038;	1.078
0.05542;	1.097
0.05919;	1.107
0.06675;	1.111
0.07053;	1.12
0.07557;	1.128
0.07935;	1.147
0.08438;	1.154
0.08942;	1.159
0.09320;	1.166
0.09950;	1.17
0.10579;	1.175
0.11083;	1.195
0.11587;	1.202
0.11965;	1.213
0.12343;	1.227
0.12846;	1.23
0.13224;	1.235
0.13728;	1.241
0.14232;	1.252
0.14610;	1.263
0.14987;	1.268
0.15365;	1.272
0.15743;	1.281
0.16121;	1.291
0.16625;	1.303
0.17254;	1.312
0.17632;	1.319
0.18010;	1.327
0.18514;	1.336
0.19144;	1.34
0.20151;	1.345
0.20781;	1.359
0.21159;	1.365
0.21537;	1.371
0.22418;	1.379
0.22922;	1.385
0.23300;	1.398
0.23678;	1.406
0.24055;	1.42
0.24559;	1.427
0.25063;	1.431
0.25567;	1.441
0.25945;	1.451
0.26448;	1.458
0.26952;	1.465
0.27330;	1.474
0.27708;	1.482
0.28086;	1.487
0.28463;	1.493
0.28841;	1.5
0.29345;	1.516
0.29723;	1.521
0.30101;	1.534
0.30730;	1.542
0.31234;	1.55
0.31738;	1.556
0.32116;	1.567
0.32494;	1.576
0.33123;	1.581
0.33627;	1.587
0.34131;	1.592
0.34635;	1.607
0.35013;	1.621
0.35390;	1.625
0.35894;	1.634
0.36272;	1.638
0.36650;	1.641
0.37028;	1.651
0.37406;	1.657
0.37783;	1.668
0.38161;	1.675
0.38539;	1.688
0.39043;	1.692
0.39547;	1.7
0.39924;	1.707
0.40302;	1.715
0.40680;	1.735
0.41310;	1.743
0.41688;	1.762
0.42065;	1.771
0.42443;	1.788
0.42821;	1.797
0.43199;	1.806
0.43703;	1.823
0.44081;	1.833
0.44458;	1.844
0.44836;	1.859
0.45340;	1.878
0.45970;	1.894
0.46348;	1.906
0.46725;	1.918
0.47103;	1.936
0.47607;	1.954
0.47985;	1.964
0.48489;	1.975
0.48866;	1.991
0.49244;	2.002
0.49748;	2.009
0.50252;	2.029
0.50756;	2.055
0.51134;	2.063
0.51637;	2.069
0.52015;	2.107
0.52393;	2.137
0.52771;	2.155
0.53149;	2.171
0.53526;	2.18
0.54030;	2.192
0.54408;	2.211
0.54786;	2.218
0.55164;	2.261
0.55542;	2.28
0.55919;	2.309
0.56297;	2.335
0.56675;	2.343
0.57053;	2.375
0.57431;	2.393
0.57935;	2.436
0.58312;	2.452
0.58690;	2.466
0.59068;	2.515
0.59446;	2.547
0.59950;	2.566
0.60327;	2.611
0.60705;	2.682
0.61209;	2.697
0.61587;	2.715
0.61965;	2.744
0.62343;	2.806
0.62720;	2.85
0.63098;	2.891
0.63476;	2.908
0.63980;	2.944
0.64358;	2.96
0.64861;	2.996
0.65239;	3.042
0.65617;	3.092
0.65995;	3.154
0.66499;	3.167
0.67003;	3.199
0.67380;	3.233
0.67758;	3.253
0.68136;	3.267
0.68514;	3.304
0.68892;	3.328
0.69270;	3.398
0.69647;	3.431
0.70025;	3.482
0.70403;	3.505
0.70781;	3.522
0.71159;	3.585
0.71537;	3.598
0.71914;	3.658
0.72292;	3.683
0.72670;	3.712
0.73048;	3.779
0.73426;	3.846
0.73804;	3.867
0.74181;	3.947
0.74559;	4.003
0.74937;	4.182
0.75315;	4.267
0.75693;	4.278
0.76071;	4.403
0.76448;	4.437
0.76826;	4.516
0.77204;	4.536
0.77582;	4.576
0.77960;	4.631
0.78338;	4.678
0.78715;	4.709
0.79093;	4.737
0.79471;	4.753
0.79849;	4.809
0.80227;	4.863
0.80605;	5.008
0.80982;	5.127
0.81360;	5.238
0.81738;	5.276
0.82116;	5.348
0.82494;	5.394
0.82872;	5.485
0.83249;	5.596
0.83627;	5.697
0.84005;	5.792
0.84383;	5.924
0.84761;	6.09
0.85139;	6.183
0.85516;	6.353
0.85894;	6.556
0.86272;	6.941
0.86650;	7.039
0.87028;	7.223
0.87406;	7.558
0.87783;	7.692
0.88161;	7.938
0.88539;	8.041
0.88917;	8.295
0.89295;	8.613
0.89673;	8.958
0.90050;	9.253
0.90428;	9.42
0.90806;	9.968
0.91184;	10.043
0.91562;	10.345
0.91940;	10.621
0.92317;	11.072
0.92695;	12.106
0.93073;	12.423
0.93451;	12.991
0.93829;	13.61
0.94207;	14.113
0.94584;	14.573
0.94962;	15.23
0.95340;	16.012
0.95718;	17.143
0.96096;	18.174
0.96474;	19.188
0.96851;	22.497
0.97229;	24.242
0.97607;	26.294
0.97985;	28.22
0.98363;	33.636
0.98741;	34.444
0.99118;	50.727
0.99496;	182.168
0.99874;	264.129

=========================

