===== Time to Reach Source [s] (YouTube (WiFi)) =====
0.00025;	0.082
0.00196;	0.107
0.00614;	0.113
0.01129;	0.122
0.01497;	0.13
0.02307;	0.135
0.03019;	0.143
0.03314;	0.148
0.04222;	0.153
0.04590;	0.158
0.05400;	0.163
0.05989;	0.168
0.06848;	0.174
0.07315;	0.18
0.08738;	0.185
0.09229;	0.19
0.10383;	0.195
0.10825;	0.2
0.12077;	0.205
0.12739;	0.21
0.14531;	0.215
0.15464;	0.22
0.17133;	0.225
0.17845;	0.23
0.19146;	0.235
0.20005;	0.24
0.21183;	0.245
0.22165;	0.25
0.23368;	0.255
0.24251;	0.26
0.25307;	0.265
0.26289;	0.27
0.27491;	0.275
0.28596;	0.28
0.29651;	0.285
0.30437;	0.29
0.31615;	0.295
0.32892;	0.3
0.33922;	0.305
0.35371;	0.31
0.36524;	0.315
0.37653;	0.32
0.38537;	0.325
0.39568;	0.33
0.40452;	0.335
0.41483;	0.34
0.42538;	0.345
0.43716;	0.35
0.44526;	0.355
0.45484;	0.36
0.46294;	0.365
0.47202;	0.37
0.48036;	0.375
0.49043;	0.38
0.49877;	0.385
0.50835;	0.39
0.51399;	0.395
0.52037;	0.4
0.52676;	0.405
0.53289;	0.41
0.53731;	0.415
0.54443;	0.42
0.55106;	0.425
0.55695;	0.43
0.56210;	0.435
0.56726;	0.44
0.57143;	0.445
0.57609;	0.45
0.58395;	0.456
0.58984;	0.461
0.59720;	0.466
0.60334;	0.472
0.60923;	0.477
0.61487;	0.482
0.62126;	0.487
0.62666;	0.492
0.63255;	0.497
0.63967;	0.502
0.64826;	0.507
0.65390;	0.512
0.66004;	0.517
0.66421;	0.522
0.66986;	0.527
0.67403;	0.532
0.67992;	0.538
0.68606;	0.543
0.68999;	0.548
0.69391;	0.553
0.69858;	0.558
0.70324;	0.563
0.70889;	0.569
0.71281;	0.574
0.71723;	0.58
0.72165;	0.585
0.72533;	0.59
0.72877;	0.596
0.73466;	0.601
0.73810;	0.606
0.74104;	0.611
0.74472;	0.617
0.74865;	0.622
0.75282;	0.627
0.75528;	0.633
0.75847;	0.638
0.76166;	0.643
0.76608;	0.648
0.76829;	0.654
0.77000;	0.659
0.77320;	0.665
0.77590;	0.671
0.77860;	0.677
0.78130;	0.682
0.78473;	0.687
0.78866;	0.693
0.79185;	0.699
0.79455;	0.705
0.79651;	0.711
0.79921;	0.716
0.80216;	0.722
0.80437;	0.727
0.80584;	0.732
0.80830;	0.737
0.81222;	0.743
0.81566;	0.748
0.81787;	0.755
0.82155;	0.76
0.82401;	0.766
0.82622;	0.772
0.82892;	0.777
0.83137;	0.782
0.83260;	0.787
0.83432;	0.793
0.83677;	0.801
0.83947;	0.809
0.84192;	0.814
0.84413;	0.819
0.84585;	0.825
0.84880;	0.832
0.85174;	0.837
0.85395;	0.843
0.85641;	0.85
0.85837;	0.855
0.86107;	0.861
0.86303;	0.867
0.86524;	0.873
0.86745;	0.878
0.86917;	0.885
0.87138;	0.893
0.87359;	0.901
0.87604;	0.907
0.87776;	0.918
0.87973;	0.926
0.88169;	0.933
0.88365;	0.945
0.88513;	0.951
0.88954;	0.956
0.89151;	0.966
0.89347;	0.974
0.89593;	0.981
0.89715;	0.993
0.89863;	1.002
0.89985;	1.012
0.90255;	1.023
0.90403;	1.038
0.90599;	1.05
0.90746;	1.055
0.90918;	1.06
0.91114;	1.067
0.91311;	1.077
0.91433;	1.089
0.91630;	1.104
0.91826;	1.12
0.91973;	1.128
0.92145;	1.138
0.92268;	1.15
0.92391;	1.156
0.92514;	1.166
0.92636;	1.172
0.92857;	1.181
0.93029;	1.194
0.93225;	1.203
0.93397;	1.219
0.93544;	1.235
0.93716;	1.25
0.93864;	1.264
0.93986;	1.279
0.94158;	1.296
0.94330;	1.314
0.94453;	1.333
0.94624;	1.343
0.94747;	1.357
0.94870;	1.374
0.94993;	1.385
0.95115;	1.401
0.95238;	1.415
0.95385;	1.427
0.95508;	1.437
0.95631;	1.454
0.95778;	1.47
0.95901;	1.497
0.96048;	1.535
0.96195;	1.566
0.96318;	1.582
0.96490;	1.617
0.96613;	1.66
0.96735;	1.682
0.96858;	1.743
0.97005;	1.774
0.97128;	1.812
0.97251;	1.866
0.97374;	1.965
0.97496;	2.076
0.97619;	2.141
0.97742;	2.196
0.97865;	2.291
0.97987;	2.422
0.98110;	2.565
0.98233;	2.621
0.98355;	2.888
0.98478;	3.13
0.98625;	3.378
0.98773;	4.275
0.98895;	4.952
0.99018;	5.574
0.99141;	5.84
0.99264;	6.094
0.99386;	6.675
0.99509;	8.476
0.99632;	13.46
0.99755;	19.556
0.99877;	31.551
1.00000;	161.129

=========================

===== Time to Reach Source [s] (YouTube (Cellular)) =====
0.00068;	0.186
0.00478;	0.214
0.00751;	0.229
0.01025;	0.245
0.01503;	0.252
0.02322;	0.266
0.02596;	0.272
0.03279;	0.276
0.03689;	0.283
0.04235;	0.287
0.04781;	0.293
0.05191;	0.297
0.05738;	0.301
0.06284;	0.305
0.07104;	0.31
0.07787;	0.314
0.08265;	0.319
0.08880;	0.324
0.09426;	0.328
0.10178;	0.332
0.10724;	0.337
0.11475;	0.341
0.12090;	0.345
0.12773;	0.349
0.13388;	0.355
0.14003;	0.359
0.14754;	0.363
0.15369;	0.367
0.15779;	0.372
0.16803;	0.376
0.17281;	0.38
0.17964;	0.385
0.18784;	0.389
0.19604;	0.394
0.20697;	0.398
0.21790;	0.402
0.22336;	0.406
0.23019;	0.411
0.24044;	0.416
0.24863;	0.421
0.25478;	0.425
0.26025;	0.429
0.27117;	0.433
0.27869;	0.437
0.28552;	0.441
0.29030;	0.446
0.29508;	0.451
0.30191;	0.455
0.31284;	0.459
0.31831;	0.463
0.32445;	0.467
0.32992;	0.471
0.33880;	0.475
0.34563;	0.479
0.35041;	0.483
0.35587;	0.487
0.36066;	0.491
0.36612;	0.495
0.37432;	0.499
0.38251;	0.503
0.38798;	0.51
0.39891;	0.514
0.40847;	0.52
0.41598;	0.524
0.42418;	0.528
0.43033;	0.532
0.43921;	0.537
0.44467;	0.541
0.45219;	0.545
0.46107;	0.551
0.46585;	0.555
0.47336;	0.559
0.47814;	0.565
0.48292;	0.57
0.48907;	0.574
0.49522;	0.58
0.50410;	0.584
0.51093;	0.588
0.51639;	0.592
0.52186;	0.596
0.53005;	0.603
0.53620;	0.607
0.54098;	0.611
0.54850;	0.616
0.55601;	0.621
0.56284;	0.625
0.56557;	0.632
0.57036;	0.636
0.57445;	0.64
0.57923;	0.644
0.58470;	0.649
0.59085;	0.655
0.59563;	0.659
0.59973;	0.664
0.60383;	0.67
0.60792;	0.677
0.61407;	0.681
0.61954;	0.686
0.62363;	0.69
0.62842;	0.694
0.63525;	0.699
0.64003;	0.705
0.64549;	0.712
0.64959;	0.719
0.65505;	0.723
0.65847;	0.731
0.66462;	0.74
0.66803;	0.746
0.67213;	0.752
0.67691;	0.759
0.68101;	0.764
0.68511;	0.771
0.68921;	0.781
0.69331;	0.789
0.69809;	0.8
0.70082;	0.807
0.70355;	0.815
0.70628;	0.827
0.71107;	0.84
0.71585;	0.851
0.71995;	0.861
0.72404;	0.871
0.72746;	0.878
0.73156;	0.888
0.73566;	0.895
0.73975;	0.904
0.74249;	0.917
0.74727;	0.93
0.75068;	0.937
0.75410;	0.947
0.75888;	0.964
0.76161;	0.982
0.76503;	0.997
0.76844;	1.009
0.77117;	1.022
0.77391;	1.034
0.77732;	1.05
0.78074;	1.072
0.78415;	1.082
0.78825;	1.091
0.79098;	1.104
0.79372;	1.13
0.79713;	1.143
0.79986;	1.155
0.80328;	1.166
0.80738;	1.176
0.81011;	1.182
0.81352;	1.203
0.81762;	1.209
0.82036;	1.219
0.82309;	1.242
0.82582;	1.293
0.82855;	1.306
0.83128;	1.372
0.83402;	1.387
0.83675;	1.409
0.83948;	1.436
0.84290;	1.493
0.84563;	1.537
0.84836;	1.564
0.85109;	1.625
0.85383;	1.666
0.85656;	1.718
0.85929;	1.77
0.86202;	1.873
0.86475;	1.907
0.86749;	1.961
0.87022;	2.01
0.87295;	2.073
0.87637;	2.102
0.87910;	2.182
0.88183;	2.225
0.88456;	2.303
0.88730;	2.4
0.89003;	2.445
0.89344;	2.494
0.89617;	2.544
0.89891;	2.617
0.90164;	2.669
0.90437;	2.78
0.90710;	2.845
0.90984;	2.938
0.91325;	2.989
0.91598;	3.08
0.91872;	3.191
0.92145;	3.25
0.92418;	3.402
0.92691;	3.587
0.92964;	3.675
0.93238;	3.814
0.93511;	4.058
0.93784;	4.181
0.94057;	4.294
0.94331;	4.408
0.94604;	4.496
0.94877;	4.653
0.95150;	4.802
0.95423;	5.244
0.95697;	5.355
0.95970;	5.761
0.96243;	6.117
0.96516;	6.474
0.96790;	6.886
0.97063;	7.603
0.97336;	7.954
0.97609;	8.438
0.97883;	9.037
0.98156;	9.807
0.98429;	11.29
0.98702;	12.142
0.98975;	13.757
0.99249;	17.611
0.99522;	25.446
0.99795;	196.097

=========================

===== Time to Reach Source [s] (DTube (WiFi)) =====
0.00055;	0.152
0.00385;	0.369
0.00714;	0.408
0.01044;	0.443
0.01593;	0.462
0.01978;	0.477
0.02418;	0.484
0.02802;	0.505
0.03187;	0.516
0.03681;	0.524
0.04231;	0.537
0.04725;	0.546
0.05275;	0.555
0.05879;	0.565
0.06538;	0.585
0.06978;	0.593
0.07857;	0.604
0.08462;	0.614
0.09341;	0.621
0.10055;	0.63
0.10604;	0.637
0.11154;	0.646
0.11868;	0.653
0.12418;	0.659
0.13242;	0.666
0.13846;	0.672
0.14505;	0.681
0.15110;	0.688
0.15934;	0.696
0.16374;	0.706
0.17088;	0.718
0.18022;	0.724
0.18626;	0.73
0.19396;	0.737
0.20000;	0.744
0.20714;	0.751
0.21099;	0.758
0.21593;	0.764
0.22198;	0.77
0.22692;	0.779
0.23462;	0.785
0.24176;	0.793
0.24725;	0.802
0.25330;	0.81
0.26044;	0.82
0.26813;	0.827
0.27363;	0.834
0.28022;	0.841
0.28791;	0.848
0.29341;	0.856
0.30000;	0.865
0.30659;	0.872
0.31429;	0.88
0.32253;	0.889
0.32912;	0.896
0.33516;	0.907
0.34176;	0.915
0.34560;	0.923
0.35330;	0.932
0.36154;	0.939
0.36923;	0.946
0.37747;	0.952
0.38297;	0.958
0.39066;	0.967
0.39670;	0.973
0.40165;	0.98
0.40659;	0.988
0.41154;	1.001
0.41813;	1.012
0.42363;	1.018
0.43022;	1.028
0.43681;	1.039
0.44176;	1.048
0.44725;	1.057
0.45110;	1.067
0.45549;	1.075
0.45989;	1.084
0.46429;	1.093
0.47143;	1.1
0.47692;	1.107
0.48132;	1.119
0.48571;	1.132
0.49176;	1.14
0.49615;	1.155
0.50110;	1.164
0.50659;	1.174
0.51319;	1.185
0.51868;	1.197
0.52308;	1.208
0.52747;	1.226
0.53242;	1.238
0.53791;	1.25
0.54231;	1.262
0.54615;	1.273
0.55000;	1.283
0.55385;	1.289
0.56044;	1.303
0.56538;	1.311
0.57033;	1.32
0.57473;	1.33
0.57857;	1.341
0.58187;	1.352
0.58791;	1.363
0.59286;	1.381
0.59725;	1.396
0.60110;	1.417
0.60714;	1.434
0.61099;	1.446
0.61593;	1.458
0.61978;	1.481
0.62418;	1.499
0.62857;	1.512
0.63242;	1.522
0.63736;	1.545
0.64176;	1.567
0.64505;	1.59
0.64835;	1.61
0.65220;	1.633
0.65549;	1.654
0.65989;	1.668
0.66429;	1.687
0.66813;	1.717
0.67143;	1.752
0.67473;	1.796
0.67802;	1.817
0.68187;	1.837
0.68736;	1.862
0.69066;	1.873
0.69396;	1.897
0.69835;	1.912
0.70275;	1.944
0.70714;	1.98
0.71099;	2.004
0.71429;	2.02
0.71813;	2.068
0.72143;	2.117
0.72527;	2.141
0.72967;	2.175
0.73352;	2.201
0.73681;	2.244
0.74066;	2.267
0.74451;	2.302
0.74780;	2.329
0.75165;	2.352
0.75495;	2.383
0.75824;	2.397
0.76209;	2.451
0.76538;	2.481
0.76868;	2.526
0.77198;	2.597
0.77582;	2.627
0.77967;	2.69
0.78297;	2.765
0.78626;	2.807
0.79011;	2.861
0.79341;	2.912
0.79780;	2.958
0.80110;	2.993
0.80440;	3.05
0.80824;	3.109
0.81154;	3.205
0.81484;	3.321
0.81868;	3.438
0.82198;	3.509
0.82582;	3.567
0.82912;	3.654
0.83242;	3.753
0.83626;	3.836
0.83956;	3.924
0.84286;	4.06
0.84670;	4.25
0.85000;	4.341
0.85330;	4.391
0.85659;	4.564
0.85989;	4.604
0.86319;	4.652
0.86648;	4.742
0.86978;	4.855
0.87308;	4.921
0.87637;	5.075
0.87967;	5.152
0.88297;	5.275
0.88626;	5.532
0.88956;	5.768
0.89286;	6.084
0.89615;	6.247
0.89945;	6.506
0.90275;	6.67
0.90604;	6.956
0.90934;	7.164
0.91264;	7.467
0.91593;	7.856
0.91978;	8.22
0.92308;	8.736
0.92637;	9.181
0.92967;	9.535
0.93297;	9.754
0.93626;	9.931
0.93956;	10.213
0.94286;	11.256
0.94615;	12.103
0.94945;	13.138
0.95275;	14.468
0.95604;	16.722
0.95934;	18.133
0.96264;	19.983
0.96593;	26.205
0.96923;	32.815
0.97253;	38.934
0.97582;	84.625
0.97912;	122.189
0.98242;	156.706
0.98571;	279.563
0.98901;	360.724
0.99231;	538.858
0.99560;	606.113
0.99890;	1739.987

=========================

===== Time to Reach Source [s] (DTube (Cellular)) =====
0.00126;	0.428
0.00504;	0.616
0.00882;	0.663
0.01259;	0.698
0.01637;	0.721
0.02015;	0.739
0.02393;	0.751
0.02771;	0.772
0.03275;	0.784
0.03652;	0.792
0.04030;	0.81
0.04534;	0.821
0.04912;	0.831
0.05416;	0.839
0.06171;	0.854
0.06801;	0.864
0.07179;	0.869
0.07683;	0.881
0.08060;	0.887
0.08438;	0.893
0.08942;	0.903
0.09446;	0.913
0.09950;	0.917
0.10579;	0.924
0.11083;	0.932
0.11461;	0.936
0.11839;	0.946
0.12343;	0.952
0.12720;	0.957
0.13224;	0.963
0.13728;	0.971
0.14106;	0.976
0.14736;	0.985
0.15491;	0.99
0.15869;	1.002
0.16247;	1.012
0.16625;	1.019
0.17128;	1.023
0.17632;	1.029
0.18136;	1.033
0.18514;	1.042
0.18892;	1.046
0.19270;	1.051
0.20277;	1.057
0.20781;	1.068
0.21159;	1.071
0.21537;	1.077
0.22040;	1.082
0.22544;	1.086
0.23048;	1.098
0.23552;	1.102
0.23929;	1.109
0.24307;	1.113
0.24811;	1.121
0.25441;	1.129
0.25945;	1.135
0.26574;	1.138
0.27330;	1.142
0.27708;	1.15
0.28086;	1.154
0.28589;	1.164
0.29093;	1.168
0.29471;	1.174
0.29975;	1.179
0.30605;	1.188
0.31234;	1.193
0.31738;	1.204
0.32242;	1.217
0.32872;	1.225
0.33249;	1.231
0.33627;	1.237
0.34005;	1.243
0.34383;	1.248
0.34761;	1.258
0.35264;	1.273
0.35894;	1.278
0.36272;	1.285
0.36902;	1.29
0.37531;	1.298
0.38035;	1.302
0.38413;	1.312
0.38791;	1.326
0.39295;	1.338
0.39798;	1.342
0.40428;	1.363
0.40806;	1.373
0.41310;	1.381
0.41688;	1.388
0.42065;	1.396
0.42569;	1.399
0.42947;	1.409
0.43451;	1.414
0.43955;	1.42
0.44584;	1.424
0.45214;	1.437
0.45718;	1.447
0.46348;	1.453
0.46725;	1.464
0.47229;	1.472
0.47607;	1.486
0.47985;	1.494
0.48363;	1.5
0.48866;	1.508
0.49370;	1.526
0.49748;	1.534
0.50252;	1.544
0.50630;	1.564
0.51134;	1.572
0.51637;	1.583
0.52015;	1.592
0.52393;	1.598
0.52771;	1.611
0.53275;	1.616
0.53778;	1.627
0.54156;	1.645
0.54534;	1.65
0.54912;	1.667
0.55290;	1.677
0.55668;	1.691
0.56045;	1.712
0.56423;	1.744
0.56927;	1.751
0.57431;	1.793
0.57809;	1.811
0.58186;	1.837
0.58564;	1.851
0.58942;	1.858
0.59320;	1.87
0.59698;	1.885
0.60076;	1.912
0.60453;	1.918
0.60831;	1.923
0.61209;	1.932
0.61713;	1.946
0.62091;	1.974
0.62594;	1.99
0.62972;	1.999
0.63350;	2.023
0.63728;	2.06
0.64106;	2.071
0.64484;	2.087
0.64861;	2.112
0.65239;	2.154
0.65617;	2.17
0.65995;	2.22
0.66373;	2.262
0.66877;	2.276
0.67380;	2.337
0.67884;	2.391
0.68262;	2.414
0.68640;	2.435
0.69018;	2.458
0.69395;	2.471
0.69773;	2.496
0.70151;	2.544
0.70529;	2.613
0.70907;	2.636
0.71411;	2.652
0.71788;	2.673
0.72166;	2.706
0.72544;	2.759
0.72922;	2.871
0.73300;	2.898
0.73678;	2.921
0.74181;	2.926
0.74559;	2.969
0.74937;	2.985
0.75315;	3.014
0.75693;	3.107
0.76071;	3.17
0.76448;	3.221
0.76826;	3.249
0.77204;	3.307
0.77582;	3.329
0.77960;	3.448
0.78338;	3.518
0.78967;	3.579
0.79345;	3.647
0.79723;	3.69
0.80101;	3.772
0.80479;	3.913
0.80982;	4.01
0.81360;	4.043
0.81738;	4.096
0.82116;	4.12
0.82494;	4.252
0.82872;	4.287
0.83249;	4.348
0.83627;	4.392
0.84005;	4.422
0.84383;	4.497
0.84761;	4.641
0.85139;	4.705
0.85516;	4.795
0.85894;	4.879
0.86272;	5.038
0.86650;	5.159
0.87028;	5.22
0.87406;	5.335
0.87783;	5.52
0.88161;	5.919
0.88539;	5.982
0.88917;	6.207
0.89295;	6.439
0.89673;	6.604
0.90050;	6.778
0.90428;	7.246
0.90806;	7.621
0.91184;	7.727
0.91562;	8.013
0.91940;	8.297
0.92317;	8.707
0.92695;	9.257
0.93073;	9.585
0.93451;	9.82
0.93829;	10.06
0.94207;	10.48
0.94584;	11.09
0.94962;	12.444
0.95340;	12.751
0.95718;	13.468
0.96096;	14.086
0.96474;	15.685
0.96851;	16.782
0.97229;	18.623
0.97607;	20.469
0.97985;	25.26
0.98363;	28.046
0.98741;	33.345
0.99118;	45.512
0.99496;	181.415
0.99874;	262.328

=========================

