===== Traceroute RTT [ms] (YouTube (WiFi)) =====
0.00026;	2.0
0.00654;	4.0
0.00706;	6.0
0.00785;	8.0
0.00837;	10.0
0.00863;	12.0
0.00890;	16.0
0.01151;	18.0
0.02145;	20.0
0.23496;	22.0
0.37991;	24.0
0.57248;	26.0
0.65856;	28.0
0.71612;	30.0
0.75458;	32.0
0.79199;	34.0
0.82051;	36.0
0.83857;	38.0
0.85191;	40.0
0.87075;	42.0
0.88200;	44.0
0.88854;	46.0
0.89613;	48.0
0.90162;	50.0
0.90686;	52.0
0.91130;	54.0
0.91575;	56.0
0.91863;	58.0
0.92255;	60.0
0.92779;	62.0
0.93040;	64.0
0.93302;	66.0
0.93485;	68.0
0.93773;	70.0
0.94270;	72.0
0.94636;	74.0
0.95107;	76.0
0.95500;	78.0
0.95657;	80.0
0.95761;	82.0
0.95892;	84.0
0.95997;	86.0
0.96128;	88.0
0.96259;	90.0
0.96337;	92.0
0.96625;	94.0
0.96965;	96.0
0.97070;	98.0
0.97227;	100.0
0.97305;	102.0
0.97410;	104.0
0.97488;	108.0
0.97541;	110.0
0.97593;	112.0
0.97645;	116.0
0.97671;	120.0
0.97698;	122.0
0.97724;	124.0
0.97750;	130.0
0.97776;	132.0
0.97828;	134.0
0.97855;	136.0
0.97881;	138.0
0.97959;	142.0
0.97985;	146.0
0.98012;	152.0
0.98038;	154.0
0.98090;	156.0
0.98142;	158.0
0.98168;	160.0
0.98195;	164.0
0.98221;	174.0
0.98247;	176.0
0.98299;	184.0
0.98325;	186.0
0.98352;	188.0
0.98378;	208.0
0.98404;	214.0
0.98482;	224.0
0.98535;	228.0
0.98613;	230.0
0.98639;	232.0
0.98666;	244.0
0.98692;	246.0
0.98718;	252.0
0.98744;	262.0
0.98770;	264.0
0.98796;	272.0
0.98823;	276.0
0.98849;	358.0
0.98875;	364.0
0.98901;	388.0
0.98927;	404.0
0.98953;	422.0
0.98980;	500.0
0.99006;	514.0
0.99032;	522.0
0.99058;	558.0
0.99084;	560.0
0.99110;	562.0
0.99137;	570.0
0.99163;	576.0
0.99189;	582.0
0.99215;	624.0
0.99241;	630.0
0.99267;	632.0
0.99294;	634.0
0.99320;	644.0
0.99346;	650.0
0.99372;	666.0
0.99398;	694.0
0.99424;	698.0
0.99451;	718.0
0.99477;	758.0
0.99503;	760.0
0.99529;	816.0
0.99555;	830.0
0.99581;	846.0
0.99608;	904.0
0.99634;	1014.0
0.99660;	1130.0
0.99686;	1150.0
0.99712;	1152.0
0.99738;	1210.0
0.99765;	1304.0
0.99791;	1308.0
0.99817;	1328.0
0.99843;	1330.0
0.99869;	1358.0
0.99895;	1360.0
0.99948;	1390.0
0.99974;	1422.0
1.00000;	2356.0

=========================

===== Traceroute RTT [ms] (YouTube (Cellular)) =====
0.00961;	28.0
0.04482;	30.0
0.09819;	32.0
0.15475;	34.0
0.22519;	36.0
0.27321;	38.0
0.29136;	40.0
0.30309;	42.0
0.31590;	44.0
0.32764;	46.0
0.35326;	48.0
0.37567;	50.0
0.39701;	52.0
0.41409;	54.0
0.43223;	56.0
0.45678;	58.0
0.47599;	60.0
0.49413;	62.0
0.51974;	64.0
0.54216;	66.0
0.56350;	68.0
0.58378;	70.0
0.59552;	72.0
0.61473;	74.0
0.63074;	76.0
0.64461;	78.0
0.66062;	80.0
0.68090;	82.0
0.69797;	84.0
0.71185;	86.0
0.72465;	88.0
0.73746;	90.0
0.74493;	92.0
0.74920;	94.0
0.75347;	96.0
0.75987;	98.0
0.76628;	100.0
0.77161;	102.0
0.78228;	104.0
0.78869;	106.0
0.80149;	108.0
0.80576;	110.0
0.81217;	112.0
0.82497;	114.0
0.82818;	116.0
0.83244;	118.0
0.83885;	120.0
0.84098;	122.0
0.84525;	124.0
0.84739;	126.0
0.85272;	128.0
0.85699;	130.0
0.86126;	134.0
0.86446;	136.0
0.86873;	138.0
0.87193;	140.0
0.87620;	142.0
0.88260;	144.0
0.88474;	146.0
0.89007;	148.0
0.89328;	150.0
0.89541;	152.0
0.89861;	154.0
0.89968;	156.0
0.90288;	158.0
0.90395;	162.0
0.90502;	164.0
0.90608;	168.0
0.90928;	172.0
0.91035;	174.0
0.91142;	176.0
0.91249;	178.0
0.91355;	180.0
0.91569;	182.0
0.91676;	184.0
0.91782;	188.0
0.91889;	194.0
0.92102;	218.0
0.92209;	224.0
0.92316;	230.0
0.92423;	236.0
0.92529;	266.0
0.92636;	274.0
0.92743;	290.0
0.93063;	306.0
0.93170;	334.0
0.93276;	362.0
0.93383;	400.0
0.93490;	432.0
0.93597;	484.0
0.93703;	494.0
0.94023;	506.0
0.94130;	510.0
0.94237;	546.0
0.94344;	548.0
0.94450;	552.0
0.94557;	558.0
0.94664;	572.0
0.94771;	582.0
0.94877;	584.0
0.94984;	606.0
0.95091;	608.0
0.95197;	612.0
0.95304;	616.0
0.95518;	618.0
0.95624;	624.0
0.95731;	626.0
0.95838;	628.0
0.96051;	632.0
0.96158;	652.0
0.96478;	656.0
0.96692;	660.0
0.96798;	684.0
0.96905;	688.0
0.97012;	698.0
0.97118;	710.0
0.97225;	734.0
0.97332;	746.0
0.97545;	748.0
0.97652;	750.0
0.97759;	764.0
0.97866;	774.0
0.97972;	802.0
0.98079;	806.0
0.98186;	814.0
0.98292;	816.0
0.98399;	820.0
0.98506;	832.0
0.98613;	844.0
0.98719;	852.0
0.98826;	932.0
0.98933;	982.0
0.99039;	1092.0
0.99146;	1228.0
0.99253;	1234.0
0.99360;	1240.0
0.99466;	1312.0
0.99573;	1446.0
0.99680;	1482.0
0.99787;	1540.0
0.99893;	1686.0
1.00000;	1778.0

=========================

===== Traceroute RTT [ms] (DTube (WiFi)) =====
0.00129;	20.0
0.00257;	22.0
0.00321;	24.0
0.00386;	26.0
0.02828;	28.0
0.04949;	30.0
0.06748;	32.0
0.07712;	34.0
0.08548;	36.0
0.10668;	38.0
0.12275;	40.0
0.13946;	42.0
0.15296;	44.0
0.17352;	46.0
0.21658;	48.0
0.23393;	50.0
0.26928;	52.0
0.37404;	54.0
0.42802;	56.0
0.45244;	58.0
0.47365;	60.0
0.49422;	62.0
0.51414;	64.0
0.52828;	66.0
0.54949;	68.0
0.55913;	70.0
0.56812;	72.0
0.57648;	74.0
0.58226;	76.0
0.58676;	78.0
0.59447;	80.0
0.59961;	82.0
0.60540;	84.0
0.60925;	86.0
0.61247;	88.0
0.61697;	90.0
0.62211;	92.0
0.62789;	94.0
0.63303;	96.0
0.64010;	98.0
0.64460;	100.0
0.64910;	102.0
0.65488;	106.0
0.66324;	108.0
0.67095;	110.0
0.67866;	112.0
0.68445;	114.0
0.68895;	116.0
0.69216;	118.0
0.69280;	120.0
0.69473;	122.0
0.69794;	124.0
0.70051;	126.0
0.70244;	128.0
0.70501;	130.0
0.70694;	132.0
0.70823;	134.0
0.71080;	136.0
0.71272;	138.0
0.71465;	140.0
0.71594;	142.0
0.71851;	144.0
0.72044;	146.0
0.72108;	154.0
0.72172;	156.0
0.72237;	158.0
0.72429;	160.0
0.72494;	168.0
0.72558;	170.0
0.72622;	174.0
0.72751;	176.0
0.72879;	178.0
0.73008;	180.0
0.73201;	184.0
0.73265;	186.0
0.73329;	188.0
0.73522;	190.0
0.73586;	194.0
0.73715;	196.0
0.73779;	198.0
0.73907;	200.0
0.74036;	202.0
0.74100;	206.0
0.74229;	212.0
0.74293;	220.0
0.74357;	222.0
0.74486;	224.0
0.74550;	226.0
0.74679;	228.0
0.74807;	230.0
0.74936;	232.0
0.75129;	234.0
0.75193;	236.0
0.75321;	238.0
0.75578;	242.0
0.75643;	244.0
0.75707;	246.0
0.75900;	248.0
0.75964;	250.0
0.76093;	252.0
0.76157;	254.0
0.76285;	256.0
0.76350;	260.0
0.76414;	262.0
0.76607;	264.0
0.76671;	266.0
0.76864;	268.0
0.76928;	276.0
0.76992;	280.0
0.77057;	282.0
0.77121;	284.0
0.77185;	300.0
0.77249;	310.0
0.77314;	328.0
0.77378;	330.0
0.77442;	332.0
0.77506;	336.0
0.77571;	358.0
0.77635;	364.0
0.77699;	368.0
0.77763;	374.0
0.77828;	394.0
0.77892;	400.0
0.77956;	406.0
0.78021;	424.0
0.78085;	426.0
0.78149;	428.0
0.78213;	440.0
0.78278;	442.0
0.78342;	446.0
0.78406;	452.0
0.78470;	456.0
0.78535;	464.0
0.78599;	466.0
0.78663;	472.0
0.78728;	484.0
0.78792;	486.0
0.78856;	490.0
0.78920;	500.0
0.78985;	514.0
0.79049;	528.0
0.79113;	538.0
0.79242;	540.0
0.79306;	562.0
0.79370;	568.0
0.79434;	570.0
0.79499;	574.0
0.79563;	594.0
0.79692;	612.0
0.79756;	616.0
0.79820;	618.0
0.79884;	622.0
0.79949;	626.0
0.80141;	628.0
0.80206;	630.0
0.80270;	634.0
0.80398;	636.0
0.80463;	640.0
0.80591;	642.0
0.80656;	644.0
0.80720;	646.0
0.80848;	650.0
0.80913;	652.0
0.81041;	654.0
0.81170;	656.0
0.81234;	658.0
0.81427;	660.0
0.81684;	664.0
0.82005;	668.0
0.82262;	670.0
0.82391;	672.0
0.82519;	676.0
0.82648;	684.0
0.82776;	686.0
0.82969;	690.0
0.83033;	692.0
0.83290;	696.0
0.83419;	698.0
0.83483;	700.0
0.83676;	702.0
0.83869;	706.0
0.83997;	708.0
0.84126;	712.0
0.84319;	718.0
0.84383;	724.0
0.84447;	726.0
0.84640;	728.0
0.84704;	730.0
0.84833;	732.0
0.85026;	734.0
0.85090;	738.0
0.85154;	740.0
0.85283;	742.0
0.85411;	748.0
0.85476;	750.0
0.85540;	766.0
0.85604;	770.0
0.85668;	772.0
0.85733;	774.0
0.85861;	778.0
0.85925;	780.0
0.86118;	784.0
0.86247;	786.0
0.86311;	790.0
0.86440;	798.0
0.86568;	806.0
0.86632;	808.0
0.86761;	810.0
0.86825;	820.0
0.86889;	824.0
0.87018;	828.0
0.87082;	838.0
0.87147;	844.0
0.87275;	846.0
0.87404;	852.0
0.87532;	856.0
0.87596;	858.0
0.87661;	860.0
0.87725;	868.0
0.87789;	870.0
0.87918;	876.0
0.88046;	880.0
0.88111;	884.0
0.88175;	890.0
0.88239;	892.0
0.88303;	896.0
0.88368;	898.0
0.88560;	900.0
0.88689;	908.0
0.88753;	910.0
0.88817;	912.0
0.88882;	914.0
0.88946;	916.0
0.89010;	920.0
0.89075;	926.0
0.89139;	932.0
0.89267;	934.0
0.89332;	936.0
0.89396;	938.0
0.89524;	944.0
0.89589;	946.0
0.89653;	952.0
0.89846;	962.0
0.89910;	968.0
0.89974;	970.0
0.90039;	978.0
0.90103;	984.0
0.90167;	996.0
0.90296;	1000.0
0.90424;	1002.0
0.90488;	1004.0
0.90553;	1006.0
0.90617;	1008.0
0.90681;	1012.0
0.90746;	1016.0
0.91003;	1018.0
0.91260;	1022.0
0.91517;	1024.0
0.91645;	1030.0
0.91710;	1032.0
0.91838;	1034.0
0.91902;	1038.0
0.91967;	1040.0
0.92031;	1042.0
0.92224;	1044.0
0.92288;	1046.0
0.92352;	1048.0
0.92416;	1052.0
0.92545;	1060.0
0.92609;	1062.0
0.92674;	1064.0
0.92738;	1068.0
0.92866;	1070.0
0.92931;	1076.0
0.93059;	1086.0
0.93188;	1090.0
0.93252;	1092.0
0.93316;	1104.0
0.93445;	1106.0
0.93509;	1108.0
0.93573;	1110.0
0.93638;	1112.0
0.93702;	1116.0
0.93766;	1120.0
0.93895;	1122.0
0.93959;	1124.0
0.94087;	1128.0
0.94152;	1134.0
0.94216;	1142.0
0.94280;	1144.0
0.94344;	1148.0
0.94473;	1150.0
0.94537;	1152.0
0.94602;	1160.0
0.94666;	1166.0
0.94794;	1168.0
0.94859;	1170.0
0.94923;	1172.0
0.95051;	1174.0
0.95116;	1192.0
0.95180;	1200.0
0.95244;	1204.0
0.95308;	1206.0
0.95373;	1208.0
0.95437;	1218.0
0.95630;	1232.0
0.95694;	1240.0
0.95758;	1246.0
0.95823;	1250.0
0.95887;	1256.0
0.95951;	1264.0
0.96015;	1270.0
0.96080;	1272.0
0.96144;	1276.0
0.96208;	1284.0
0.96337;	1292.0
0.96401;	1294.0
0.96465;	1298.0
0.96594;	1310.0
0.96658;	1314.0
0.96787;	1322.0
0.96851;	1328.0
0.96915;	1334.0
0.96979;	1348.0
0.97044;	1356.0
0.97172;	1358.0
0.97237;	1360.0
0.97301;	1366.0
0.97365;	1382.0
0.97494;	1384.0
0.97558;	1394.0
0.97686;	1408.0
0.97751;	1426.0
0.97815;	1428.0
0.97879;	1430.0
0.97943;	1432.0
0.98072;	1434.0
0.98136;	1450.0
0.98201;	1460.0
0.98265;	1478.0
0.98329;	1544.0
0.98393;	1548.0
0.98458;	1560.0
0.98522;	1572.0
0.98586;	1600.0
0.98650;	1602.0
0.98715;	1630.0
0.98779;	1634.0
0.98843;	1636.0
0.98907;	1660.0
0.98972;	1688.0
0.99036;	1720.0
0.99100;	1748.0
0.99165;	1872.0
0.99229;	1904.0
0.99293;	1998.0
0.99357;	2122.0
0.99422;	2136.0
0.99486;	2188.0
0.99550;	2340.0
0.99614;	2360.0
0.99679;	2446.0
0.99743;	2576.0
0.99807;	2654.0
0.99871;	2998.0
0.99936;	3104.0
1.00000;	3988.0

=========================

===== Traceroute RTT [ms] (DTube (Cellular)) =====
0.00192;	44.0
0.00769;	50.0
0.01346;	52.0
0.02115;	54.0
0.02885;	56.0
0.03462;	58.0
0.03846;	60.0
0.04231;	62.0
0.05192;	64.0
0.05577;	66.0
0.05962;	68.0
0.06538;	70.0
0.06923;	72.0
0.07692;	74.0
0.08077;	76.0
0.09038;	78.0
0.10192;	80.0
0.11154;	82.0
0.12115;	84.0
0.12885;	86.0
0.14231;	88.0
0.15192;	90.0
0.16923;	92.0
0.17115;	94.0
0.17885;	96.0
0.18462;	98.0
0.18846;	100.0
0.19231;	102.0
0.20000;	104.0
0.20769;	106.0
0.21538;	108.0
0.22692;	110.0
0.23077;	112.0
0.23846;	114.0
0.24615;	118.0
0.25769;	120.0
0.26538;	122.0
0.26731;	124.0
0.27308;	126.0
0.27692;	128.0
0.28269;	130.0
0.28462;	132.0
0.29038;	136.0
0.29231;	138.0
0.29808;	140.0
0.30000;	142.0
0.30192;	144.0
0.30962;	146.0
0.31346;	148.0
0.31538;	150.0
0.32115;	152.0
0.32500;	156.0
0.32692;	158.0
0.32885;	162.0
0.33269;	166.0
0.33462;	170.0
0.33654;	174.0
0.33846;	194.0
0.34038;	216.0
0.34231;	226.0
0.34423;	268.0
0.34615;	280.0
0.34808;	304.0
0.35000;	306.0
0.35192;	320.0
0.35385;	326.0
0.35577;	328.0
0.35962;	330.0
0.36346;	332.0
0.36538;	334.0
0.36731;	336.0
0.36923;	338.0
0.37115;	340.0
0.37308;	342.0
0.37885;	344.0
0.38462;	346.0
0.38846;	348.0
0.39615;	350.0
0.40000;	352.0
0.40769;	354.0
0.41346;	356.0
0.41538;	358.0
0.42115;	360.0
0.42500;	362.0
0.43077;	364.0
0.43846;	366.0
0.44038;	370.0
0.44808;	372.0
0.45385;	374.0
0.45769;	376.0
0.46154;	378.0
0.46731;	380.0
0.46923;	382.0
0.47885;	384.0
0.48269;	386.0
0.48654;	388.0
0.49038;	390.0
0.49808;	394.0
0.50192;	396.0
0.50385;	398.0
0.51154;	400.0
0.51731;	402.0
0.52115;	404.0
0.52692;	406.0
0.53462;	408.0
0.53846;	410.0
0.54423;	412.0
0.55000;	414.0
0.55577;	416.0
0.56731;	418.0
0.57500;	420.0
0.57885;	422.0
0.58462;	424.0
0.59038;	426.0
0.59808;	428.0
0.60577;	430.0
0.61923;	432.0
0.62308;	434.0
0.63077;	436.0
0.63654;	438.0
0.64615;	440.0
0.65385;	442.0
0.65962;	444.0
0.66538;	446.0
0.67500;	448.0
0.68462;	450.0
0.68654;	454.0
0.69231;	456.0
0.69808;	458.0
0.70385;	460.0
0.70962;	462.0
0.71154;	464.0
0.71923;	466.0
0.72308;	468.0
0.73077;	470.0
0.73462;	472.0
0.74038;	474.0
0.74231;	476.0
0.75000;	480.0
0.75192;	482.0
0.75385;	484.0
0.75577;	486.0
0.76154;	488.0
0.76538;	490.0
0.76923;	494.0
0.77115;	498.0
0.77308;	502.0
0.78077;	504.0
0.78269;	508.0
0.78462;	510.0
0.78846;	512.0
0.79231;	514.0
0.79423;	516.0
0.79615;	520.0
0.79808;	522.0
0.80000;	524.0
0.80192;	526.0
0.80385;	530.0
0.80962;	532.0
0.81538;	536.0
0.82115;	540.0
0.82308;	542.0
0.82692;	548.0
0.82885;	550.0
0.83269;	554.0
0.83462;	562.0
0.83654;	566.0
0.84038;	574.0
0.84231;	582.0
0.84423;	584.0
0.84615;	586.0
0.84808;	588.0
0.85000;	590.0
0.85192;	600.0
0.85577;	606.0
0.85769;	622.0
0.85962;	626.0
0.86154;	708.0
0.86346;	728.0
0.86538;	734.0
0.86731;	784.0
0.86923;	814.0
0.87115;	900.0
0.87308;	902.0
0.87500;	1192.0
0.87692;	1264.0
0.87885;	1310.0
0.88077;	1316.0
0.88269;	1332.0
0.88462;	1350.0
0.88654;	1352.0
0.89231;	1358.0
0.89423;	1360.0
0.89615;	1364.0
0.89808;	1372.0
0.90000;	1380.0
0.90192;	1382.0
0.90385;	1396.0
0.90577;	1404.0
0.90769;	1408.0
0.90962;	1422.0
0.91154;	1424.0
0.91538;	1426.0
0.91731;	1428.0
0.91923;	1432.0
0.92115;	1442.0
0.92308;	1444.0
0.92500;	1446.0
0.92692;	1452.0
0.92885;	1454.0
0.93077;	1464.0
0.93269;	1468.0
0.93462;	1470.0
0.93846;	1476.0
0.94038;	1484.0
0.94231;	1486.0
0.94423;	1498.0
0.94615;	1510.0
0.94808;	1512.0
0.95000;	1528.0
0.95192;	1536.0
0.95385;	1548.0
0.95577;	1556.0
0.95769;	1558.0
0.95962;	1582.0
0.96154;	1586.0
0.96346;	1588.0
0.96538;	1592.0
0.96731;	1600.0
0.96923;	1632.0
0.97115;	1660.0
0.97308;	1668.0
0.97500;	1678.0
0.97692;	1692.0
0.97885;	1736.0
0.98077;	1780.0
0.98269;	1940.0
0.98462;	1966.0
0.98654;	2036.0
0.98846;	2074.0
0.99038;	2164.0
0.99231;	2484.0
0.99423;	2554.0
0.99615;	3454.0
0.99808;	4208.0
1.00000;	4402.0

=========================

