===== Content Duration [s] (YouTube (WiFi)) =====
0.00025;	9.055
0.00466;	27.376
0.00908;	40.007
0.01399;	50.294
0.01964;	54.938
0.02504;	59.605
0.02872;	66.06
0.03240;	74.93
0.03854;	86.819
0.04246;	93.367
0.04688;	102.887
0.05081;	108.622
0.05523;	116.633
0.05989;	122.044
0.06357;	128.731
0.06873;	132.771
0.07339;	144.613
0.07781;	152.183
0.08517;	157.733
0.08935;	164.978
0.09303;	169.181
0.09990;	173.127
0.10358;	177.934
0.10776;	180.953
0.11537;	183.693
0.11978;	187.571
0.12494;	189.219
0.13009;	190.937
0.13353;	196.069
0.13795;	199.738
0.14286;	203.128
0.14924;	205.821
0.15366;	211.185
0.15734;	216.386
0.16102;	220.287
0.16716;	226.371
0.17158;	230.272
0.17894;	237.493
0.18508;	242.091
0.18999;	248.43
0.19416;	254.537
0.19833;	259.9
0.20447;	271.952
0.20839;	277.455
0.21404;	283.863
0.22067;	290.528
0.22533;	300.094
0.22975;	306.735
0.23319;	310.682
0.23662;	318.345
0.24055;	325.845
0.24497;	334.088
0.25086;	342.401
0.25430;	351.735
0.25896;	358.376
0.26387;	366.619
0.26804;	374.143
0.27246;	380.249
0.27688;	387.657
0.28203;	395.853
0.28719;	400.219
0.29136;	408.926
0.29553;	417.285
0.30044;	423.044
0.30461;	428.733
0.30952;	433.098
0.31345;	435.792
0.31713;	442.247
0.32155;	446.217
0.32646;	453.021
0.33088;	459.012
0.33554;	466.581
0.33898;	477.146
0.34266;	481.558
0.34683;	490.498
0.35101;	496.535
0.35518;	501.458
0.35911;	507.286
0.36328;	511.976
0.36770;	514.739
0.37383;	520.475
0.37801;	524.143
0.38243;	529.577
0.38758;	534.012
0.39249;	539.26
0.39715;	544.322
0.40083;	550.08
0.40574;	561.017
0.41041;	570.165
0.41581;	578.897
0.41949;	588.045
0.42317;	595.011
0.42784;	600.607
0.43299;	601.768
0.43814;	603.254
0.44354;	604.647
0.44870;	606.644
0.45336;	610.173
0.45852;	613.842
0.46490;	617.627
0.47054;	621.133
0.47496;	625.8
0.47987;	630.003
0.48429;	632.86
0.48846;	635.297
0.49362;	638.618
0.49926;	642.008
0.50614;	646.211
0.51055;	649.02
0.51546;	651.853
0.52086;	657.844
0.52430;	660.422
0.52946;	663.347
0.53387;	666.133
0.53731;	671.033
0.54197;	675.004
0.54688;	680.809
0.55056;	684.872
0.55719;	688.471
0.56161;	691.931
0.56505;	694.973
0.56922;	697.643
0.57339;	701.126
0.57732;	705.933
0.58223;	708.742
0.58640;	712.968
0.59008;	718.843
0.59401;	723.44
0.59818;	729.129
0.60334;	734.702
0.60825;	740.345
0.61267;	744.965
0.61733;	749.075
0.62175;	755.321
0.62739;	759.176
0.63132;	763.843
0.63893;	768.069
0.64310;	775.128
0.64654;	779.493
0.65071;	785.972
0.65513;	790.941
0.65930;	798.255
0.66274;	802.365
0.66716;	809.006
0.67084;	813.487
0.67526;	819.455
0.68041;	824.378
0.68581;	829.811
0.69097;	832.412
0.69563;	840.074
0.70005;	844.184
0.70349;	847.11
0.70766;	853.542
0.71085;	864.734
0.71453;	871.444
0.72018;	879.85
0.72410;	884.935
0.72852;	893.016
0.73417;	900.051
0.74055;	906.483
0.74620;	914.889
0.75135;	919.881
0.75675;	922.853
0.76215;	927.242
0.76657;	933.163
0.77099;	938.411
0.77467;	943.705
0.77884;	949.045
0.78375;	954.734
0.78817;	962.281
0.79161;	970.779
0.79651;	978.883
0.80142;	983.782
0.80658;	993.326
0.81075;	1002.173
0.81443;	1010.393
0.81861;	1016.105
0.82302;	1022.699
0.82769;	1031.198
0.83235;	1045.037
0.83751;	1058.435
0.84094;	1071.554
0.84512;	1088.459
0.84929;	1099.302
0.85641;	1112.885
0.86082;	1129.975
0.86598;	1145.927
0.87040;	1157.654
0.87506;	1181.245
0.88243;	1196.779
0.88635;	1214.101
0.89028;	1237.112
0.89445;	1250.139
0.89887;	1272.894
0.90550;	1302.012
0.90967;	1331.014
0.91605;	1356.37
0.92219;	1400.163
0.92563;	1443.213
0.93029;	1473.654
0.93569;	1517.098
0.94035;	1552.811
0.94477;	1607.888
0.94845;	1700.141
0.95336;	1733.532
0.95704;	1797.804
0.96244;	1891.613
0.96760;	2014.005
0.97177;	2308.458
0.97545;	2617.608
0.97987;	2673.057
0.98380;	2916.101
0.98846;	2928.361
0.99190;	2966.418
0.99632;	3074.6

=========================

===== Content Duration [s] (YouTube (Cellular)) =====
0.00060;	13.56
0.00541;	24.473
0.01082;	30.07
0.01503;	37.059
0.02044;	46.625
0.02586;	52.964
0.03007;	60.116
0.03548;	65.898
0.04029;	72.283
0.04510;	77.02
0.04931;	83.104
0.05412;	87.446
0.05773;	90.488
0.06314;	104.002
0.06795;	117.725
0.07216;	121.231
0.07637;	127.732
0.08118;	130.89
0.08539;	141.084
0.09020;	147.841
0.09741;	151.649
0.10222;	154.947
0.10704;	160.101
0.11365;	164.049
0.12147;	165.697
0.12808;	169.343
0.13349;	172.78
0.13770;	177.029
0.14492;	178.77
0.15093;	179.096
0.15815;	180.093
0.16296;	181.928
0.16657;	184.297
0.17198;	187.571
0.17739;	188.987
0.18461;	191.494
0.18821;	194.977
0.19603;	198.019
0.19964;	201.131
0.20385;	206.378
0.20866;	210.094
0.21287;	214.738
0.21888;	216.386
0.22429;	217.734
0.22850;	222.005
0.23391;	229.297
0.23933;	231.573
0.24414;	234.8
0.25075;	237.934
0.25556;	239.885
0.25977;	245.922
0.26338;	253.933
0.26819;	258.693
0.27240;	269.188
0.27661;	274.761
0.28022;	276.851
0.28443;	284.374
0.28924;	290.481
0.29405;	296.263
0.29826;	300.234
0.30367;	301.975
0.30908;	306.642
0.31389;	308.733
0.31930;	310.311
0.32471;	314.514
0.32892;	321.039
0.33494;	329.142
0.33915;	335.412
0.34275;	339.986
0.34696;	343.724
0.35117;	351.735
0.35779;	359.026
0.36440;	364.646
0.36981;	366.457
0.37462;	370.335
0.37823;	374.978
0.38184;	383.57
0.38605;	388.887
0.39026;	398.013
0.39567;	402.007
0.40048;	408.926
0.40529;	412.409
0.40950;	420.768
0.41491;	424.901
0.41972;	429.522
0.42453;	435.792
0.42995;	443.733
0.43355;	450.258
0.43836;	455.412
0.44317;	458.895
0.44799;	465.397
0.45219;	469.321
0.45701;	475.451
0.46182;	479.84
0.46603;	484.043
0.47144;	488.524
0.47685;	498.3
0.48166;	502.061
0.48647;	510.142
0.49188;	518.246
0.49790;	524.492
0.50271;	532.526
0.50812;	539.445
0.51293;	548.687
0.51774;	553.726
0.52255;	559.6
0.52616;	568.633
0.53097;	577.178
0.53578;	581.056
0.53999;	586.652
0.54360;	591.644
0.54720;	600.258
0.55201;	602.209
0.55923;	604.438
0.56464;	607.968
0.56885;	612.612
0.57366;	616.768
0.57907;	620.297
0.58449;	622.782
0.58930;	627.496
0.59471;	636.737
0.59892;	641.451
0.60373;	643.146
0.61215;	650.924
0.61756;	654.965
0.62237;	657.705
0.62718;	663.324
0.63319;	666.087
0.63740;	673.007
0.64281;	675.909
0.65123;	678.254
0.65785;	681.97
0.66146;	686.567
0.66627;	693.696
0.67048;	699.779
0.67649;	704.284
0.68130;	712.411
0.68791;	716.614
0.69212;	722.86
0.69753;	728.177
0.70475;	738.139
0.70896;	742.643
0.71437;	744.803
0.71978;	751.653
0.72580;	753.627
0.73001;	759.292
0.73722;	770.786
0.74324;	776.173
0.74805;	781.722
0.75466;	789.176
0.76067;	799.091
0.76609;	806.521
0.77210;	814.486
0.77571;	820.848
0.78052;	827.443
0.78593;	830.368
0.79435;	834.803
0.79976;	843.325
0.80337;	850.686
0.80758;	861.367
0.81239;	876.088
0.81720;	881.475
0.82081;	887.722
0.82622;	890.067
0.82983;	905.253
0.83584;	916.12
0.83945;	938.62
0.84305;	951.6
0.84726;	956.36
0.85147;	968.248
0.85628;	985.292
0.86109;	1008.14
0.86590;	1017.173
0.87132;	1042.32
0.87733;	1051.329
0.88274;	1074.735
0.88755;	1103.18
0.89176;	1134.457
0.89537;	1149.852
0.90138;	1173.164
0.90740;	1191.137
0.91161;	1229.101
0.91642;	1273.962
0.92063;	1322.329
0.92664;	1339.768
0.93085;	1360.573
0.93566;	1391.618
0.93927;	1492.671
0.94468;	1532.563
0.94949;	1610.443
0.95490;	1672.881
0.96152;	1738.013
0.96572;	1799.012
0.96933;	1837.952
0.97294;	2279.502
0.97775;	2650.859
0.98196;	2912.014
0.98557;	2917.842
0.98918;	2953.09
0.99459;	4486.211
0.99940;	9405.01

=========================

===== Content Duration [s] (DTube (WiFi)) =====
0.00055;	4.004
0.00385;	15.07
0.00879;	20.88
0.01209;	29.487
0.01703;	36.581
0.02253;	44.566
0.02692;	55.147
0.03022;	59.026
0.03571;	60.044
0.04121;	65.003
0.04560;	70.672
0.04945;	73.574
0.05330;	75.558
0.05769;	80.688
0.06374;	87.587
0.06703;	90.537
0.07198;	94.32
0.07527;	98.326
0.07857;	101.202
0.08297;	108.246
0.08791;	112.71
0.09286;	115.404
0.09670;	120.125
0.10055;	122.99
0.10385;	127.2
0.10769;	130.311
0.11099;	132.16
0.11593;	133.834
0.11923;	134.72
0.12308;	136.834
0.12802;	140.207
0.13242;	144.382
0.13736;	145.717
0.14286;	147.634
0.14670;	150.0
0.15165;	152.386
0.15659;	156.323
0.16044;	158.678
0.16429;	162.803
0.16923;	166.208
0.17527;	169.135
0.18077;	172.63
0.18571;	175.2
0.18901;	178.16
0.19341;	180.56
0.19780;	182.349
0.20220;	183.3
0.20604;	183.951
0.20934;	185.08
0.21264;	186.225
0.21593;	188.36
0.21923;	189.754
0.22363;	190.967
0.22857;	192.5
0.23297;	195.327
0.23681;	197.0
0.24066;	198.592
0.24451;	200.634
0.24835;	201.898
0.25275;	204.72
0.25934;	206.974
0.26374;	209.177
0.26703;	210.8
0.27088;	213.172
0.27473;	214.381
0.28022;	216.034
0.28407;	217.131
0.28846;	219.03
0.29396;	221.855
0.29780;	223.98
0.30165;	226.56
0.30549;	228.496
0.31319;	229.597
0.31648;	231.254
0.32308;	233.451
0.32692;	235.335
0.33132;	237.142
0.33681;	239.239
0.34066;	241.977
0.34670;	244.135
0.35659;	245.412
0.36374;	246.647
0.36758;	247.72
0.37692;	248.576
0.38187;	252.687
0.38516;	254.221
0.39176;	256.047
0.39615;	257.451
0.40055;	259.785
0.40385;	262.219
0.40934;	263.488
0.41319;	264.824
0.41813;	265.92
0.42253;	269.434
0.42582;	272.08
0.42967;	273.274
0.43297;	277.504
0.43626;	279.754
0.43956;	281.387
0.44725;	284.076
0.45165;	286.153
0.45549;	288.24
0.46044;	291.4
0.46374;	294.843
0.46978;	297.355
0.47363;	299.776
0.47857;	302.836
0.48242;	306.28
0.48626;	309.8
0.49011;	311.728
0.49396;	313.643
0.49780;	315.978
0.50275;	318.903
0.50714;	320.863
0.51154;	321.835
0.51538;	326.72
0.51868;	329.834
0.52418;	331.86
0.52967;	334.6
0.53462;	337.367
0.53846;	340.56
0.54176;	343.934
0.54505;	346.18
0.54835;	348.167
0.55440;	352.061
0.55769;	357.169
0.56319;	359.2
0.57033;	363.197
0.57912;	365.88
0.58297;	371.497
0.58791;	374.375
0.59176;	377.65
0.59615;	380.492
0.59945;	384.301
0.60330;	386.467
0.60659;	388.756
0.61044;	393.649
0.61374;	397.24
0.61813;	401.091
0.62143;	403.65
0.62637;	408.334
0.63242;	412.48
0.63626;	414.48
0.64011;	421.675
0.64615;	425.019
0.65165;	432.879
0.65495;	437.243
0.65824;	441.905
0.66209;	444.597
0.66813;	451.867
0.67143;	460.534
0.67582;	464.631
0.67912;	468.883
0.68407;	474.183
0.68736;	479.819
0.69066;	484.95
0.69505;	492.501
0.69890;	494.4
0.70220;	497.234
0.70604;	500.375
0.71099;	506.347
0.71648;	514.048
0.71978;	521.384
0.72363;	527.873
0.72802;	537.634
0.73187;	545.7
0.73516;	556.167
0.73901;	564.765
0.74231;	568.467
0.74615;	577.847
0.74945;	587.744
0.75385;	596.934
0.75714;	605.782
0.76154;	611.545
0.76484;	622.614
0.77033;	640.598
0.77363;	654.08
0.77802;	659.634
0.78681;	673.067
0.79011;	680.546
0.79615;	687.5
0.80000;	693.534
0.80495;	700.4
0.80934;	712.9
0.81319;	721.723
0.81758;	736.2
0.82198;	743.574
0.82582;	758.75
0.82967;	763.627
0.83297;	770.437
0.83626;	775.8
0.83956;	782.134
0.84286;	795.005
0.84670;	820.634
0.85055;	843.953
0.85440;	855.4
0.85824;	864.448
0.86154;	874.046
0.86538;	880.9
0.86923;	886.933
0.87363;	904.371
0.88132;	922.181
0.88846;	951.2
0.89560;	960.067
0.90165;	979.2
0.90549;	1007.839
0.90934;	1031.723
0.91429;	1045.267
0.91868;	1065.633
0.92198;	1086.653
0.92692;	1132.932
0.93077;	1160.742
0.93462;	1176.3
0.93956;	1192.992
0.94505;	1233.3
0.94890;	1296.434
0.95385;	1318.895
0.95769;	1388.5
0.96264;	1450.342
0.96703;	1544.103
0.97033;	1599.702
0.97363;	1773.272
0.97747;	1955.375
0.98077;	2264.7
0.98571;	2457.688
0.98901;	3119.249
0.99231;	4135.533
0.99560;	7138.929
1.00000;	11114.324

=========================

===== Content Duration [s] (DTube (Cellular)) =====
0.00101;	5.248
0.00402;	9.8
0.00805;	13.355
0.01308;	26.7
0.01911;	33.307
0.02213;	38.6
0.02817;	43.434
0.03119;	47.151
0.03521;	59.328
0.03823;	60.044
0.04125;	68.374
0.04427;	73.974
0.04829;	77.509
0.05131;	79.034
0.05433;	81.48
0.05734;	87.08
0.06036;	92.032
0.06338;	96.367
0.06640;	105.64
0.07143;	111.36
0.07746;	113.182
0.08249;	119.578
0.08652;	120.32
0.08954;	121.278
0.09256;	123.275
0.09658;	126.034
0.09960;	127.292
0.10262;	133.2
0.10563;	135.4
0.10865;	138.005
0.11167;	142.273
0.11569;	143.407
0.12072;	144.862
0.12575;	146.795
0.12877;	147.715
0.13179;	150.05
0.13481;	151.325
0.13883;	153.387
0.14286;	157.73
0.14688;	159.584
0.14990;	161.686
0.15292;	162.411
0.15594;	166.23
0.16298;	167.367
0.16700;	167.881
0.17002;	168.469
0.17304;	170.877
0.17606;	172.715
0.18109;	173.675
0.18410;	177.72
0.18712;	178.334
0.19014;	180.348
0.19316;	182.24
0.19618;	183.28
0.19920;	184.483
0.20221;	185.76
0.20624;	188.054
0.21227;	190.102
0.21529;	193.294
0.21831;	196.43
0.22334;	197.932
0.22837;	199.254
0.23139;	202.304
0.23541;	203.798
0.23944;	207.72
0.24748;	208.918
0.25252;	210.561
0.25654;	212.24
0.25956;	213.881
0.26258;	216.85
0.26660;	218.686
0.26962;	219.008
0.27264;	220.167
0.27565;	221.934
0.27968;	222.308
0.28270;	223.586
0.28571;	225.134
0.29376;	225.43
0.29678;	228.267
0.29980;	230.342
0.30282;	231.12
0.30584;	231.699
0.30885;	234.101
0.31187;	235.467
0.31489;	239.705
0.31791;	241.36
0.32093;	243.67
0.32394;	245.76
0.33099;	247.36
0.33501;	248.165
0.33803;	249.64
0.34105;	252.687
0.34406;	253.76
0.34909;	256.395
0.35312;	259.934
0.35815;	260.667
0.36117;	261.483
0.36419;	262.272
0.36922;	264.824
0.37324;	268.08
0.37626;	269.306
0.37928;	270.678
0.38229;	270.978
0.38833;	273.323
0.39135;	276.334
0.39638;	279.36
0.39940;	282.249
0.40241;	284.9
0.40744;	289.899
0.41046;	292.386
0.41348;	292.867
0.41650;	295.474
0.42052;	296.534
0.42455;	298.267
0.42757;	299.862
0.43260;	300.068
0.43561;	302.955
0.43863;	307.286
0.44165;	308.478
0.44567;	309.221
0.45070;	311.36
0.45473;	312.8
0.46076;	314.934
0.46378;	317.484
0.46781;	320.134
0.47082;	322.32
0.47384;	325.008
0.47686;	330.944
0.47988;	333.034
0.48290;	337.046
0.48592;	338.987
0.48893;	345.279
0.49195;	346.8
0.49698;	351.634
0.50101;	356.857
0.50402;	359.104
0.50805;	362.88
0.51207;	365.504
0.51509;	368.512
0.51811;	369.267
0.52213;	376.32
0.52716;	380.417
0.53119;	383.75
0.53421;	386.334
0.53722;	393.963
0.54024;	396.352
0.54427;	398.966
0.54728;	402.867
0.55131;	412.362
0.55433;	415.405
0.55734;	417.284
0.56036;	422.455
0.56539;	424.28
0.56841;	428.6
0.57143;	434.067
0.57445;	442.595
0.57746;	445.035
0.58149;	450.56
0.58551;	451.867
0.58853;	456.449
0.59155;	458.774
0.59457;	460.383
0.59759;	473.734
0.60161;	475.777
0.60463;	481.43
0.60966;	482.432
0.61268;	487.446
0.61569;	492.16
0.61871;	494.028
0.62173;	497.04
0.62475;	503.303
0.62777;	509.312
0.63179;	513.52
0.63481;	515.391
0.63883;	518.585
0.64386;	525.059
0.64990;	533.142
0.65292;	536.846
0.65895;	545.145
0.66197;	552.939
0.66499;	557.84
0.66901;	563.371
0.67203;	565.383
0.67505;	572.267
0.67807;	583.534
0.68410;	598.294
0.68813;	604.1
0.69115;	610.283
0.69416;	614.842
0.69819;	618.0
0.70121;	623.758
0.70423;	629.782
0.70724;	637.712
0.71127;	651.834
0.71529;	654.196
0.71831;	662.24
0.72133;	673.92
0.72535;	681.067
0.72837;	687.521
0.73239;	691.992
0.73642;	696.042
0.73944;	701.888
0.74346;	711.46
0.74648;	731.631
0.74950;	738.944
0.75352;	747.591
0.75654;	753.153
0.76056;	759.224
0.76358;	765.761
0.76761;	772.96
0.77163;	787.183
0.77465;	791.851
0.77767;	796.52
0.78270;	817.35
0.78974;	823.691
0.79477;	833.024
0.79779;	836.95
0.80080;	853.287
0.80382;	861.249
0.80785;	876.843
0.81388;	887.024
0.81992;	900.032
0.82294;	922.534
0.82797;	927.76
0.83099;	960.66
0.83400;	971.848
0.83702;	983.435
0.84406;	993.907
0.85211;	1019.375
0.85714;	1050.155
0.86217;	1071.807
0.86620;	1096.563
0.87022;	1132.434
0.87324;	1145.003
0.87626;	1164.971
0.88129;	1194.68
0.88531;	1206.016
0.89537;	1233.3
0.89940;	1267.36
0.90342;	1269.035
0.90946;	1288.9
0.91247;	1313.52
0.91851;	1414.967
0.92254;	1455.067
0.92555;	1544.035
0.92857;	1559.2
0.93260;	1599.702
0.93561;	1673.6
0.93964;	1714.313
0.94266;	1795.435
0.94769;	1875.035
0.95070;	1896.792
0.95775;	2093.474
0.96076;	2243.367
0.96579;	2457.688
0.96982;	2527.047
0.97284;	2617.024
0.97586;	2798.353
0.98189;	2951.339
0.98491;	3256.667
0.98793;	3793.167
0.99095;	5265.821
0.99396;	7215.033
1.00000;	13159.422

=========================

