===== TCP Connect Time [ms] (YouTube (WiFi)) =====
0.00025;	3
0.00344;	4
0.00540;	5
0.00565;	6
0.00589;	7
0.00614;	8
0.00663;	9
0.00810;	11
0.04541;	12
0.15538;	13
0.24374;	14
0.32744;	15
0.40893;	16
0.49190;	17
0.54836;	18
0.59548;	19
0.64335;	20
0.69048;	21
0.74939;	22
0.82450;	23
0.90010;	24
0.94207;	25
0.96048;	26
0.97054;	27
0.97644;	28
0.98012;	29
0.98085;	30
0.98233;	31
0.98576;	32
0.98699;	33
0.98797;	34
0.98895;	35
0.98945;	36
0.99018;	37
0.99067;	38
0.99116;	39
0.99165;	41
0.99190;	42
0.99215;	43
0.99239;	44
0.99264;	47
0.99313;	50
0.99337;	55
0.99411;	56
0.99460;	57
0.99509;	59
0.99558;	61
0.99583;	63
0.99632;	64
0.99656;	68
0.99681;	71
0.99705;	72
0.99730;	79
0.99755;	80
0.99779;	81
0.99804;	82
0.99828;	85
0.99853;	90
0.99877;	93
0.99902;	176
0.99926;	234
0.99951;	289
0.99975;	367
1.00000;	932

=========================

===== TCP Connect Time [ms] (YouTube (Cellular)) =====
0.00120;	17
0.00421;	18
0.02646;	19
0.05532;	20
0.08118;	21
0.12688;	22
0.16957;	23
0.21828;	24
0.25496;	25
0.28382;	26
0.31569;	27
0.34456;	28
0.37041;	29
0.39988;	30
0.42634;	31
0.44979;	32
0.46723;	33
0.48587;	34
0.50271;	35
0.51894;	36
0.53758;	37
0.55683;	38
0.58749;	39
0.63319;	40
0.66446;	41
0.70415;	42
0.73241;	43
0.75045;	44
0.76849;	45
0.77931;	46
0.79014;	47
0.80216;	48
0.81720;	49
0.82562;	50
0.83343;	51
0.84305;	52
0.85328;	53
0.86109;	54
0.86891;	55
0.87733;	56
0.88274;	57
0.88635;	58
0.89116;	59
0.89296;	60
0.89717;	61
0.90138;	62
0.90619;	63
0.90800;	64
0.90980;	65
0.91221;	66
0.91281;	67
0.91642;	68
0.91942;	69
0.92063;	70
0.92423;	71
0.92604;	72
0.92724;	73
0.92784;	74
0.92844;	76
0.93025;	78
0.93325;	79
0.93626;	80
0.93806;	81
0.93987;	82
0.94047;	83
0.94287;	84
0.94708;	85
0.94889;	87
0.94949;	88
0.95069;	89
0.95430;	90
0.95490;	91
0.95670;	92
0.95731;	93
0.95971;	94
0.96152;	95
0.96392;	96
0.96452;	97
0.96512;	100
0.96633;	102
0.96753;	103
0.96813;	104
0.96873;	105
0.96933;	106
0.96993;	109
0.97054;	110
0.97114;	112
0.97234;	113
0.97294;	117
0.97414;	118
0.97474;	126
0.97535;	130
0.97595;	133
0.97715;	135
0.97775;	139
0.97835;	148
0.97895;	149
0.97956;	151
0.98016;	154
0.98076;	157
0.98136;	177
0.98196;	178
0.98256;	186
0.98316;	194
0.98376;	195
0.98437;	208
0.98497;	209
0.98557;	217
0.98617;	219
0.98677;	229
0.98737;	236
0.98797;	237
0.98857;	241
0.98978;	244
0.99038;	254
0.99098;	273
0.99158;	276
0.99278;	288
0.99339;	289
0.99399;	292
0.99459;	295
0.99519;	309
0.99579;	328
0.99639;	339
0.99699;	393
0.99759;	394
0.99820;	444
0.99880;	453
0.99940;	465
1.00000;	1773

=========================

===== TCP Connect Time [ms] (DTube (WiFi)) =====
0.07033;	0
0.07253;	13
0.07363;	14
0.07637;	15
0.08407;	16
0.09560;	17
0.11154;	18
0.12308;	19
0.14945;	20
0.18791;	21
0.22967;	22
0.26044;	23
0.28681;	24
0.33077;	25
0.35659;	26
0.38407;	27
0.40220;	28
0.42308;	29
0.45549;	30
0.49725;	31
0.53846;	32
0.57363;	33
0.60659;	34
0.63352;	35
0.65714;	36
0.67912;	37
0.69176;	38
0.70165;	39
0.71703;	40
0.72637;	41
0.73407;	42
0.74341;	43
0.74725;	44
0.74890;	45
0.75110;	46
0.75440;	47
0.75824;	48
0.76264;	49
0.77198;	50
0.78242;	51
0.80220;	52
0.82473;	53
0.85275;	54
0.88571;	55
0.90934;	56
0.91923;	57
0.92967;	58
0.93297;	59
0.93846;	60
0.94341;	61
0.94945;	62
0.95110;	63
0.95659;	64
0.95769;	65
0.95989;	66
0.96319;	67
0.96484;	68
0.96648;	69
0.96703;	70
0.96868;	73
0.96978;	75
0.97033;	77
0.97143;	78
0.97198;	87
0.97253;	92
0.97308;	95
0.97363;	106
0.97418;	113
0.97473;	117
0.97582;	119
0.97637;	142
0.97692;	156
0.97747;	165
0.97802;	171
0.97857;	172
0.97912;	175
0.97967;	177
0.98077;	184
0.98132;	201
0.98187;	219
0.98242;	226
0.98297;	258
0.98352;	286
0.98407;	291
0.98462;	298
0.98516;	317
0.98571;	328
0.98626;	331
0.98681;	333
0.98736;	353
0.98791;	354
0.98846;	357
0.98901;	380
0.98956;	385
0.99011;	410
0.99066;	414
0.99121;	418
0.99176;	419
0.99231;	427
0.99286;	438
0.99341;	441
0.99396;	474
0.99451;	476
0.99505;	512
0.99560;	530
0.99615;	533
0.99670;	711
0.99725;	870
0.99780;	1009
0.99835;	1106
0.99890;	1157
0.99945;	1546
1.00000;	2776

=========================

===== TCP Connect Time [ms] (DTube (Cellular)) =====
0.00101;	23
0.00402;	26
0.00604;	27
0.01107;	28
0.01408;	29
0.02012;	30
0.02515;	31
0.03219;	32
0.04225;	33
0.06539;	34
0.08451;	35
0.10664;	36
0.13481;	37
0.15493;	38
0.17002;	39
0.18109;	40
0.19014;	41
0.20322;	42
0.21831;	43
0.22938;	44
0.24648;	45
0.26358;	46
0.29175;	47
0.32093;	48
0.34608;	49
0.37123;	50
0.39235;	51
0.40744;	52
0.42757;	53
0.43863;	54
0.44769;	55
0.45573;	56
0.46579;	57
0.47686;	58
0.49195;	59
0.51911;	60
0.54728;	61
0.57243;	62
0.58551;	63
0.59557;	64
0.60664;	65
0.61871;	66
0.62877;	67
0.63380;	68
0.64386;	69
0.65392;	70
0.66398;	71
0.67002;	72
0.67606;	73
0.68209;	74
0.68813;	75
0.69115;	76
0.69517;	77
0.69819;	78
0.70322;	79
0.70825;	80
0.71730;	81
0.72032;	82
0.72233;	84
0.72535;	85
0.72736;	89
0.73038;	90
0.73139;	91
0.73239;	92
0.73541;	93
0.73642;	94
0.73843;	95
0.73944;	96
0.74044;	97
0.74447;	99
0.74547;	101
0.74648;	102
0.74748;	103
0.74849;	105
0.74950;	107
0.75151;	110
0.75352;	114
0.75453;	117
0.75654;	119
0.75755;	122
0.75956;	128
0.76056;	130
0.76157;	131
0.76258;	133
0.76358;	137
0.76459;	141
0.76559;	142
0.76660;	143
0.76761;	151
0.76861;	162
0.76962;	174
0.77062;	177
0.77163;	179
0.77264;	180
0.77364;	183
0.77666;	184
0.77767;	185
0.78068;	186
0.78270;	187
0.78571;	188
0.78873;	189
0.79276;	190
0.79577;	191
0.79879;	192
0.80181;	193
0.80483;	194
0.80785;	195
0.80885;	196
0.81388;	197
0.81791;	198
0.82394;	199
0.82596;	200
0.83199;	201
0.83400;	202
0.83602;	204
0.83702;	205
0.84205;	206
0.84507;	207
0.84608;	208
0.84708;	209
0.85010;	211
0.85111;	212
0.85513;	213
0.85714;	214
0.86016;	215
0.86117;	216
0.86620;	218
0.86821;	219
0.86922;	220
0.87123;	222
0.87525;	223
0.87626;	225
0.88129;	226
0.88229;	227
0.88531;	229
0.88732;	231
0.88833;	232
0.89135;	233
0.89235;	234
0.89336;	235
0.89738;	236
0.89839;	237
0.90141;	238
0.90543;	239
0.90644;	241
0.90744;	242
0.90946;	244
0.91046;	245
0.91348;	248
0.91449;	251
0.91549;	252
0.91650;	254
0.91751;	255
0.91851;	257
0.91952;	260
0.92052;	261
0.92254;	262
0.92354;	267
0.92455;	278
0.92555;	279
0.92656;	295
0.92757;	297
0.92857;	298
0.92958;	300
0.93058;	303
0.93159;	304
0.93260;	308
0.93561;	310
0.93763;	311
0.93964;	312
0.94064;	313
0.94266;	314
0.94467;	315
0.94668;	316
0.95473;	317
0.95775;	318
0.96579;	319
0.97787;	320
0.98089;	321
0.98390;	322
0.98491;	328
0.98592;	353
0.98692;	379
0.98793;	389
0.98893;	398
0.99095;	401
0.99195;	403
0.99296;	421
0.99396;	422
0.99497;	432
0.99598;	441
0.99698;	468
0.99799;	484
0.99899;	494
1.00000;	546

=========================

