===== Traceroute RTT [ms] (YouTube (WiFi)) =====
0.00026;	2.0
0.00654;	4.0
0.00706;	6.0
0.00785;	8.0
0.00837;	10.0
0.00863;	12.0
0.00890;	16.0
0.01151;	18.0
0.02145;	20.0
0.23496;	22.0
0.37991;	24.0
0.57248;	26.0
0.65856;	28.0
0.71612;	30.0
0.75458;	32.0
0.79199;	34.0
0.82051;	36.0
0.83857;	38.0
0.85191;	40.0
0.87075;	42.0
0.88200;	44.0
0.88854;	46.0
0.89613;	48.0
0.90162;	50.0
0.90686;	52.0
0.91130;	54.0
0.91575;	56.0
0.91863;	58.0
0.92255;	60.0
0.92779;	62.0
0.93040;	64.0
0.93302;	66.0
0.93485;	68.0
0.93773;	70.0
0.94270;	72.0
0.94636;	74.0
0.95107;	76.0
0.95500;	78.0
0.95657;	80.0
0.95761;	82.0
0.95892;	84.0
0.95997;	86.0
0.96128;	88.0
0.96259;	90.0
0.96337;	92.0
0.96625;	94.0
0.96965;	96.0
0.97070;	98.0
0.97227;	100.0
0.97305;	102.0
0.97410;	104.0
0.97488;	108.0
0.97541;	110.0
0.97593;	112.0
0.97645;	116.0
0.97671;	120.0
0.97698;	122.0
0.97724;	124.0
0.97750;	130.0
0.97776;	132.0
0.97828;	134.0
0.97855;	136.0
0.97881;	138.0
0.97959;	142.0
0.97985;	146.0
0.98012;	152.0
0.98038;	154.0
0.98090;	156.0
0.98142;	158.0
0.98168;	160.0
0.98195;	164.0
0.98221;	174.0
0.98247;	176.0
0.98299;	184.0
0.98325;	186.0
0.98352;	188.0
0.98378;	208.0
0.98404;	214.0
0.98482;	224.0
0.98535;	228.0
0.98613;	230.0
0.98639;	232.0
0.98666;	244.0
0.98692;	246.0
0.98718;	252.0
0.98744;	262.0
0.98770;	264.0
0.98796;	272.0
0.98823;	276.0
0.98849;	358.0
0.98875;	364.0
0.98901;	388.0
0.98927;	404.0
0.98953;	422.0
0.98980;	500.0
0.99006;	514.0
0.99032;	522.0
0.99058;	558.0
0.99084;	560.0
0.99110;	562.0
0.99137;	570.0
0.99163;	576.0
0.99189;	582.0
0.99215;	624.0
0.99241;	630.0
0.99267;	632.0
0.99294;	634.0
0.99320;	644.0
0.99346;	650.0
0.99372;	666.0
0.99398;	694.0
0.99424;	698.0
0.99451;	718.0
0.99477;	758.0
0.99503;	760.0
0.99529;	816.0
0.99555;	830.0
0.99581;	846.0
0.99608;	904.0
0.99634;	1014.0
0.99660;	1130.0
0.99686;	1150.0
0.99712;	1152.0
0.99738;	1210.0
0.99765;	1304.0
0.99791;	1308.0
0.99817;	1328.0
0.99843;	1330.0
0.99869;	1358.0
0.99895;	1360.0
0.99948;	1390.0
0.99974;	1422.0
1.00000;	2356.0

=========================

===== Traceroute RTT [ms] (YouTube (Cellular)) =====
0.00848;	28.0
0.03959;	30.0
0.08954;	32.0
0.14232;	34.0
0.20641;	36.0
0.24882;	38.0
0.26484;	40.0
0.27521;	42.0
0.28652;	44.0
0.29972;	46.0
0.32422;	48.0
0.34402;	50.0
0.36758;	52.0
0.38549;	54.0
0.40716;	56.0
0.43827;	58.0
0.46089;	60.0
0.48445;	62.0
0.51555;	64.0
0.54948;	66.0
0.58341;	68.0
0.60792;	70.0
0.62394;	72.0
0.64185;	74.0
0.65693;	76.0
0.66918;	78.0
0.68615;	80.0
0.70594;	82.0
0.72290;	84.0
0.73610;	86.0
0.74741;	88.0
0.75966;	90.0
0.76626;	92.0
0.77097;	94.0
0.77474;	96.0
0.78040;	98.0
0.78605;	100.0
0.79076;	102.0
0.80019;	104.0
0.80679;	106.0
0.81810;	108.0
0.82187;	110.0
0.82752;	112.0
0.83883;	114.0
0.84166;	116.0
0.84543;	118.0
0.85203;	120.0
0.85391;	122.0
0.85768;	124.0
0.85957;	126.0
0.86428;	128.0
0.86805;	130.0
0.86899;	132.0
0.87276;	134.0
0.87559;	136.0
0.87936;	138.0
0.88219;	140.0
0.88596;	142.0
0.89161;	144.0
0.89350;	146.0
0.89821;	148.0
0.90104;	150.0
0.90292;	152.0
0.90575;	154.0
0.90669;	156.0
0.90952;	158.0
0.91046;	162.0
0.91140;	164.0
0.91235;	168.0
0.91517;	172.0
0.91612;	174.0
0.91706;	176.0
0.91800;	178.0
0.91894;	180.0
0.92083;	182.0
0.92177;	184.0
0.92271;	188.0
0.92366;	194.0
0.92554;	218.0
0.92648;	224.0
0.92743;	230.0
0.92837;	236.0
0.92931;	248.0
0.93025;	254.0
0.93120;	266.0
0.93214;	274.0
0.93308;	290.0
0.93591;	306.0
0.93685;	334.0
0.93779;	362.0
0.93874;	400.0
0.93968;	426.0
0.94062;	432.0
0.94156;	484.0
0.94251;	494.0
0.94345;	504.0
0.94628;	506.0
0.94722;	510.0
0.94816;	546.0
0.94910;	548.0
0.95005;	552.0
0.95099;	558.0
0.95193;	572.0
0.95287;	582.0
0.95382;	584.0
0.95476;	606.0
0.95570;	608.0
0.95664;	612.0
0.95759;	616.0
0.95947;	618.0
0.96041;	624.0
0.96136;	626.0
0.96230;	628.0
0.96418;	632.0
0.96513;	652.0
0.96795;	656.0
0.96984;	660.0
0.97078;	670.0
0.97172;	684.0
0.97267;	688.0
0.97361;	698.0
0.97455;	710.0
0.97549;	734.0
0.97644;	746.0
0.97832;	748.0
0.97926;	750.0
0.98021;	764.0
0.98115;	774.0
0.98209;	802.0
0.98303;	806.0
0.98398;	814.0
0.98492;	816.0
0.98586;	820.0
0.98680;	832.0
0.98775;	844.0
0.98869;	852.0
0.98963;	932.0
0.99057;	982.0
0.99152;	1092.0
0.99246;	1228.0
0.99340;	1234.0
0.99434;	1240.0
0.99529;	1312.0
0.99623;	1446.0
0.99717;	1482.0
0.99811;	1540.0
0.99906;	1686.0
1.00000;	1778.0

=========================

===== Traceroute RTT [ms] (DTube (WiFi)) =====
0.00129;	20.0
0.00257;	22.0
0.00321;	24.0
0.00386;	26.0
0.02828;	28.0
0.04949;	30.0
0.06748;	32.0
0.07712;	34.0
0.08548;	36.0
0.10668;	38.0
0.12275;	40.0
0.13946;	42.0
0.15296;	44.0
0.17352;	46.0
0.21658;	48.0
0.23393;	50.0
0.26928;	52.0
0.37404;	54.0
0.42802;	56.0
0.45244;	58.0
0.47365;	60.0
0.49422;	62.0
0.51414;	64.0
0.52828;	66.0
0.54949;	68.0
0.55913;	70.0
0.56812;	72.0
0.57648;	74.0
0.58226;	76.0
0.58676;	78.0
0.59447;	80.0
0.59961;	82.0
0.60540;	84.0
0.60925;	86.0
0.61247;	88.0
0.61697;	90.0
0.62211;	92.0
0.62789;	94.0
0.63303;	96.0
0.64010;	98.0
0.64460;	100.0
0.64910;	102.0
0.65488;	106.0
0.66324;	108.0
0.67095;	110.0
0.67866;	112.0
0.68445;	114.0
0.68895;	116.0
0.69216;	118.0
0.69280;	120.0
0.69473;	122.0
0.69794;	124.0
0.70051;	126.0
0.70244;	128.0
0.70501;	130.0
0.70694;	132.0
0.70823;	134.0
0.71080;	136.0
0.71272;	138.0
0.71465;	140.0
0.71594;	142.0
0.71851;	144.0
0.72044;	146.0
0.72108;	154.0
0.72172;	156.0
0.72237;	158.0
0.72429;	160.0
0.72494;	168.0
0.72558;	170.0
0.72622;	174.0
0.72751;	176.0
0.72879;	178.0
0.73008;	180.0
0.73201;	184.0
0.73265;	186.0
0.73329;	188.0
0.73522;	190.0
0.73586;	194.0
0.73715;	196.0
0.73779;	198.0
0.73907;	200.0
0.74036;	202.0
0.74100;	206.0
0.74229;	212.0
0.74293;	220.0
0.74357;	222.0
0.74486;	224.0
0.74550;	226.0
0.74679;	228.0
0.74807;	230.0
0.74936;	232.0
0.75129;	234.0
0.75193;	236.0
0.75321;	238.0
0.75578;	242.0
0.75643;	244.0
0.75707;	246.0
0.75900;	248.0
0.75964;	250.0
0.76093;	252.0
0.76157;	254.0
0.76285;	256.0
0.76350;	260.0
0.76414;	262.0
0.76607;	264.0
0.76671;	266.0
0.76864;	268.0
0.76928;	276.0
0.76992;	280.0
0.77057;	282.0
0.77121;	284.0
0.77185;	300.0
0.77249;	310.0
0.77314;	328.0
0.77378;	330.0
0.77442;	332.0
0.77506;	336.0
0.77571;	358.0
0.77635;	364.0
0.77699;	368.0
0.77763;	374.0
0.77828;	394.0
0.77892;	400.0
0.77956;	406.0
0.78021;	424.0
0.78085;	426.0
0.78149;	428.0
0.78213;	440.0
0.78278;	442.0
0.78342;	446.0
0.78406;	452.0
0.78470;	456.0
0.78535;	464.0
0.78599;	466.0
0.78663;	472.0
0.78728;	484.0
0.78792;	486.0
0.78856;	490.0
0.78920;	500.0
0.78985;	514.0
0.79049;	528.0
0.79113;	538.0
0.79242;	540.0
0.79306;	562.0
0.79370;	568.0
0.79434;	570.0
0.79499;	574.0
0.79563;	594.0
0.79692;	612.0
0.79756;	616.0
0.79820;	618.0
0.79884;	622.0
0.79949;	626.0
0.80141;	628.0
0.80206;	630.0
0.80270;	634.0
0.80398;	636.0
0.80463;	640.0
0.80591;	642.0
0.80656;	644.0
0.80720;	646.0
0.80848;	650.0
0.80913;	652.0
0.81041;	654.0
0.81170;	656.0
0.81234;	658.0
0.81427;	660.0
0.81684;	664.0
0.82005;	668.0
0.82262;	670.0
0.82391;	672.0
0.82519;	676.0
0.82648;	684.0
0.82776;	686.0
0.82969;	690.0
0.83033;	692.0
0.83290;	696.0
0.83419;	698.0
0.83483;	700.0
0.83676;	702.0
0.83869;	706.0
0.83997;	708.0
0.84126;	712.0
0.84319;	718.0
0.84383;	724.0
0.84447;	726.0
0.84640;	728.0
0.84704;	730.0
0.84833;	732.0
0.85026;	734.0
0.85090;	738.0
0.85154;	740.0
0.85283;	742.0
0.85411;	748.0
0.85476;	750.0
0.85540;	766.0
0.85604;	770.0
0.85668;	772.0
0.85733;	774.0
0.85861;	778.0
0.85925;	780.0
0.86118;	784.0
0.86247;	786.0
0.86311;	790.0
0.86440;	798.0
0.86568;	806.0
0.86632;	808.0
0.86761;	810.0
0.86825;	820.0
0.86889;	824.0
0.87018;	828.0
0.87082;	838.0
0.87147;	844.0
0.87275;	846.0
0.87404;	852.0
0.87532;	856.0
0.87596;	858.0
0.87661;	860.0
0.87725;	868.0
0.87789;	870.0
0.87918;	876.0
0.88046;	880.0
0.88111;	884.0
0.88175;	890.0
0.88239;	892.0
0.88303;	896.0
0.88368;	898.0
0.88560;	900.0
0.88689;	908.0
0.88753;	910.0
0.88817;	912.0
0.88882;	914.0
0.88946;	916.0
0.89010;	920.0
0.89075;	926.0
0.89139;	932.0
0.89267;	934.0
0.89332;	936.0
0.89396;	938.0
0.89524;	944.0
0.89589;	946.0
0.89653;	952.0
0.89846;	962.0
0.89910;	968.0
0.89974;	970.0
0.90039;	978.0
0.90103;	984.0
0.90167;	996.0
0.90296;	1000.0
0.90424;	1002.0
0.90488;	1004.0
0.90553;	1006.0
0.90617;	1008.0
0.90681;	1012.0
0.90746;	1016.0
0.91003;	1018.0
0.91260;	1022.0
0.91517;	1024.0
0.91645;	1030.0
0.91710;	1032.0
0.91838;	1034.0
0.91902;	1038.0
0.91967;	1040.0
0.92031;	1042.0
0.92224;	1044.0
0.92288;	1046.0
0.92352;	1048.0
0.92416;	1052.0
0.92545;	1060.0
0.92609;	1062.0
0.92674;	1064.0
0.92738;	1068.0
0.92866;	1070.0
0.92931;	1076.0
0.93059;	1086.0
0.93188;	1090.0
0.93252;	1092.0
0.93316;	1104.0
0.93445;	1106.0
0.93509;	1108.0
0.93573;	1110.0
0.93638;	1112.0
0.93702;	1116.0
0.93766;	1120.0
0.93895;	1122.0
0.93959;	1124.0
0.94087;	1128.0
0.94152;	1134.0
0.94216;	1142.0
0.94280;	1144.0
0.94344;	1148.0
0.94473;	1150.0
0.94537;	1152.0
0.94602;	1160.0
0.94666;	1166.0
0.94794;	1168.0
0.94859;	1170.0
0.94923;	1172.0
0.95051;	1174.0
0.95116;	1192.0
0.95180;	1200.0
0.95244;	1204.0
0.95308;	1206.0
0.95373;	1208.0
0.95437;	1218.0
0.95630;	1232.0
0.95694;	1240.0
0.95758;	1246.0
0.95823;	1250.0
0.95887;	1256.0
0.95951;	1264.0
0.96015;	1270.0
0.96080;	1272.0
0.96144;	1276.0
0.96208;	1284.0
0.96337;	1292.0
0.96401;	1294.0
0.96465;	1298.0
0.96594;	1310.0
0.96658;	1314.0
0.96787;	1322.0
0.96851;	1328.0
0.96915;	1334.0
0.96979;	1348.0
0.97044;	1356.0
0.97172;	1358.0
0.97237;	1360.0
0.97301;	1366.0
0.97365;	1382.0
0.97494;	1384.0
0.97558;	1394.0
0.97686;	1408.0
0.97751;	1426.0
0.97815;	1428.0
0.97879;	1430.0
0.97943;	1432.0
0.98072;	1434.0
0.98136;	1450.0
0.98201;	1460.0
0.98265;	1478.0
0.98329;	1544.0
0.98393;	1548.0
0.98458;	1560.0
0.98522;	1572.0
0.98586;	1600.0
0.98650;	1602.0
0.98715;	1630.0
0.98779;	1634.0
0.98843;	1636.0
0.98907;	1660.0
0.98972;	1688.0
0.99036;	1720.0
0.99100;	1748.0
0.99165;	1872.0
0.99229;	1904.0
0.99293;	1998.0
0.99357;	2122.0
0.99422;	2136.0
0.99486;	2188.0
0.99550;	2340.0
0.99614;	2360.0
0.99679;	2446.0
0.99743;	2576.0
0.99807;	2654.0
0.99871;	2998.0
0.99936;	3104.0
1.00000;	3988.0

=========================

===== Traceroute RTT [ms] (DTube (Cellular)) =====
0.00158;	44.0
0.00631;	50.0
0.01104;	52.0
0.01735;	54.0
0.02366;	56.0
0.02839;	58.0
0.03155;	60.0
0.03470;	62.0
0.04259;	64.0
0.04574;	66.0
0.04890;	68.0
0.05363;	70.0
0.05678;	72.0
0.06309;	74.0
0.06625;	76.0
0.07413;	78.0
0.08360;	80.0
0.09148;	82.0
0.09937;	84.0
0.10568;	86.0
0.11672;	88.0
0.12461;	90.0
0.13880;	92.0
0.14038;	94.0
0.14669;	96.0
0.15142;	98.0
0.15457;	100.0
0.15773;	102.0
0.16404;	104.0
0.17035;	106.0
0.17666;	108.0
0.18612;	110.0
0.18927;	112.0
0.19558;	114.0
0.20189;	118.0
0.21136;	120.0
0.21767;	122.0
0.21924;	124.0
0.22397;	126.0
0.22713;	128.0
0.23186;	130.0
0.23344;	132.0
0.23817;	136.0
0.23975;	138.0
0.24448;	140.0
0.24606;	142.0
0.24763;	144.0
0.25394;	146.0
0.25710;	148.0
0.25868;	150.0
0.26341;	152.0
0.26656;	156.0
0.26814;	158.0
0.26972;	162.0
0.27287;	166.0
0.27445;	170.0
0.27603;	174.0
0.27760;	194.0
0.27918;	216.0
0.28076;	226.0
0.28233;	268.0
0.28391;	280.0
0.28549;	304.0
0.28707;	306.0
0.28864;	320.0
0.29022;	326.0
0.29180;	328.0
0.29495;	330.0
0.29811;	332.0
0.29968;	334.0
0.30126;	336.0
0.30284;	338.0
0.30599;	340.0
0.30757;	342.0
0.31546;	344.0
0.32019;	346.0
0.32334;	348.0
0.33281;	350.0
0.33912;	352.0
0.34543;	354.0
0.35174;	356.0
0.35647;	358.0
0.36120;	360.0
0.36435;	362.0
0.36909;	364.0
0.37855;	366.0
0.38328;	370.0
0.39590;	372.0
0.40221;	374.0
0.40536;	376.0
0.41325;	378.0
0.42271;	380.0
0.42902;	382.0
0.44479;	384.0
0.45426;	386.0
0.46215;	388.0
0.47003;	390.0
0.47319;	392.0
0.47950;	394.0
0.48738;	396.0
0.49369;	398.0
0.50158;	400.0
0.50789;	402.0
0.51262;	404.0
0.52050;	406.0
0.52997;	408.0
0.53470;	410.0
0.53943;	412.0
0.54574;	414.0
0.55363;	416.0
0.56309;	418.0
0.57098;	420.0
0.57729;	422.0
0.58202;	424.0
0.58833;	426.0
0.59464;	428.0
0.60252;	430.0
0.61356;	432.0
0.61672;	434.0
0.62618;	436.0
0.63091;	438.0
0.63880;	440.0
0.64669;	442.0
0.65300;	444.0
0.65773;	446.0
0.66562;	448.0
0.67350;	450.0
0.67508;	454.0
0.67981;	456.0
0.68454;	458.0
0.69085;	460.0
0.69874;	462.0
0.70032;	464.0
0.70820;	466.0
0.71136;	468.0
0.71767;	470.0
0.72082;	472.0
0.72555;	474.0
0.72871;	476.0
0.73659;	480.0
0.73817;	482.0
0.73975;	484.0
0.74132;	486.0
0.74606;	488.0
0.74921;	490.0
0.75237;	494.0
0.75394;	498.0
0.75552;	500.0
0.75710;	502.0
0.76341;	504.0
0.76498;	506.0
0.76656;	508.0
0.76814;	510.0
0.77129;	512.0
0.77445;	514.0
0.77603;	516.0
0.77760;	520.0
0.77918;	522.0
0.78076;	524.0
0.78233;	526.0
0.78391;	530.0
0.78864;	532.0
0.79495;	536.0
0.79968;	540.0
0.80126;	542.0
0.80442;	548.0
0.80757;	550.0
0.81230;	554.0
0.81388;	562.0
0.81703;	566.0
0.81861;	568.0
0.82019;	570.0
0.82334;	572.0
0.82965;	574.0
0.83123;	578.0
0.83281;	582.0
0.83438;	584.0
0.83754;	586.0
0.83912;	588.0
0.84069;	590.0
0.84227;	600.0
0.84700;	606.0
0.84858;	610.0
0.85016;	614.0
0.85174;	622.0
0.85331;	626.0
0.85489;	636.0
0.85647;	646.0
0.85804;	650.0
0.85962;	654.0
0.86120;	660.0
0.86278;	668.0
0.86435;	678.0
0.86751;	684.0
0.86909;	690.0
0.87066;	708.0
0.87224;	728.0
0.87382;	734.0
0.87539;	784.0
0.87697;	814.0
0.87855;	900.0
0.88013;	902.0
0.88170;	932.0
0.88328;	1192.0
0.88486;	1264.0
0.88644;	1310.0
0.88801;	1316.0
0.88959;	1332.0
0.89117;	1350.0
0.89274;	1352.0
0.89748;	1358.0
0.89905;	1360.0
0.90063;	1364.0
0.90221;	1372.0
0.90379;	1380.0
0.90536;	1382.0
0.90694;	1396.0
0.90852;	1404.0
0.91009;	1408.0
0.91167;	1422.0
0.91325;	1424.0
0.91640;	1426.0
0.91798;	1428.0
0.91956;	1432.0
0.92114;	1438.0
0.92271;	1442.0
0.92429;	1444.0
0.92587;	1446.0
0.92744;	1452.0
0.92902;	1454.0
0.93060;	1464.0
0.93218;	1468.0
0.93375;	1470.0
0.93691;	1476.0
0.93849;	1484.0
0.94006;	1486.0
0.94164;	1498.0
0.94322;	1510.0
0.94479;	1512.0
0.94637;	1528.0
0.94795;	1536.0
0.94953;	1548.0
0.95110;	1556.0
0.95268;	1558.0
0.95426;	1582.0
0.95584;	1586.0
0.95741;	1588.0
0.95899;	1592.0
0.96057;	1600.0
0.96215;	1610.0
0.96372;	1632.0
0.96530;	1660.0
0.96688;	1668.0
0.96845;	1678.0
0.97003;	1692.0
0.97161;	1712.0
0.97319;	1736.0
0.97476;	1780.0
0.97634;	1940.0
0.97792;	1966.0
0.97950;	2036.0
0.98107;	2074.0
0.98265;	2164.0
0.98423;	2238.0
0.98580;	2484.0
0.98738;	2554.0
0.98896;	2662.0
0.99054;	2740.0
0.99211;	2898.0
0.99369;	2910.0
0.99527;	3202.0
0.99685;	3454.0
0.99842;	4208.0
1.00000;	4402.0

=========================

